date | atr_14d
2010-01-14 | 
2010-01-15 | 9.56
2010-01-16 | 9.09
2010-01-17 | 9.09
2010-01-18 | 8.14
2010-01-19 | 7.25
2010-01-20 | 8.00
2010-01-21 | 7.94
2010-01-22 | 8.58
2010-01-23 | 8.58
2010-01-24 | 8.90
2010-01-25 | 8.44
2010-01-26 | 8.41
2010-01-27 | 8.73
2010-01-28 | 9.14
2010-01-29 | 8.95
2010-01-30 | 9.28
2010-01-31 | 9.29
2010-02-01 | 10.23
2010-02-02 | 11.46
2010-02-03 | 10.86
2010-02-04 | 10.85
2010-02-05 | 10.19
2010-02-06 | 10.22
2010-02-07 | 10.37
2010-02-08 | 10.89
2010-02-09 | 11.30
2010-02-10 | 10.95
2010-02-11 | 11.14
2010-02-12 | 11.28
2010-02-13 | 11.78
2010-02-14 | 11.79
2010-02-15 | 11.44
2010-02-16 | 10.83
2010-02-17 | 10.46
2010-02-18 | 10.01
2010-02-19 | 9.86
2010-02-20 | 10.08
2010-02-21 | 10.29
2010-02-22 | 10.43
2010-02-23 | 9.93
2010-02-24 | 9.94
2010-02-25 | 9.85
2010-02-26 | 10.13
2010-02-27 | 10.09
2010-02-28 | 10.24
2010-03-01 | 9.73
2010-03-02 | 9.61
2010-03-03 | 10.32
2010-03-04 | 10.82
2010-03-05 | 11.36
2010-03-06 | 11.10
2010-03-07 | 11.14
2010-03-08 | 11.07
2010-03-09 | 10.93
2010-03-10 | 11.75
2010-03-11 | 11.54
2010-03-12 | 10.77
2010-03-13 | 10.19
2010-03-14 | 9.76
2010-03-15 | 10.38
2010-03-16 | 10.75
2010-03-17 | 10.16
2010-03-18 | 9.62
2010-03-19 | 9.48
2010-03-20 | 9.23
2010-03-21 | 8.93
2010-03-22 | 8.91
2010-03-23 | 9.01
2010-03-24 | 8.40
2010-03-25 | 8.06
2010-03-26 | 8.30
2010-03-27 | 8.72
2010-03-28 | 8.47
2010-03-29 | 8.24
2010-03-30 | 7.83
2010-03-31 | 8.19
2010-04-01 | 9.02
2010-04-02 | 8.78
2010-04-03 | 8.90
2010-04-04 | 9.22
2010-04-05 | 9.86
2010-04-06 | 10.21
2010-04-07 | 10.45
2010-04-08 | 10.18
2010-04-09 | 10.73
2010-04-10 | 10.95
2010-04-11 | 10.97
2010-04-12 | 10.38
2010-04-13 | 10.30
2010-04-14 | 10.20
2010-04-15 | 9.65
2010-04-16 | 9.57
2010-04-17 | 9.63
2010-04-18 | 9.96
2010-04-19 | 9.91
2010-04-20 | 9.52
2010-04-21 | 9.42
2010-04-22 | 9.82
2010-04-23 | 9.42
2010-04-24 | 9.39
2010-04-25 | 9.66
2010-04-26 | 10.10
2010-04-27 | 10.16
2010-04-28 | 10.15
2010-04-29 | 10.45
2010-04-30 | 10.39
2010-05-01 | 9.98
2010-05-02 | 9.16
2010-05-03 | 9.20
2010-05-04 | 9.31
2010-05-05 | 9.68
2010-05-06 | 9.84
2010-05-07 | 9.57
2010-05-08 | 8.84
2010-05-09 | 8.77
2010-05-10 | 8.81
2010-05-11 | 8.52
2010-05-12 | 8.66
2010-05-13 | 8.30
2010-05-14 | 8.77
2010-05-15 | 8.89
2010-05-16 | 9.03
2010-05-17 | 8.60
2010-05-18 | 8.86
2010-05-19 | 8.87
2010-05-20 | 8.57
2010-05-21 | 8.89
2010-05-22 | 9.43
2010-05-23 | 9.53
2010-05-24 | 9.64
2010-05-25 | 10.38
2010-05-26 | 10.29
2010-05-27 | 10.37
2010-05-28 | 10.02
2010-05-29 | 10.15
2010-05-30 | 9.95
2010-05-31 | 9.83
2010-06-01 | 9.80
2010-06-02 | 9.43
2010-06-03 | 9.62
2010-06-04 | 9.53
2010-06-05 | 9.66
2010-06-06 | 9.67
2010-06-07 | 10.17
2010-06-08 | 9.96
2010-06-09 | 10.22
2010-06-10 | 10.63
2010-06-11 | 11.39
2010-06-12 | 11.51
2010-06-13 | 12.12
2010-06-14 | 11.63
2010-06-15 | 11.75
2010-06-16 | 11.76
2010-06-17 | 11.35
2010-06-18 | 10.86
2010-06-19 | 10.31
2010-06-20 | 9.79
2010-06-21 | 8.81
2010-06-22 | 8.20
2010-06-23 | 7.64
2010-06-24 | 7.20
2010-06-25 | 7.08
2010-06-26 | 6.86
2010-06-27 | 6.62
2010-06-28 | 7.40
2010-06-29 | 7.63
2010-06-30 | 7.67
2010-07-01 | 7.98
2010-07-02 | 8.29
2010-07-03 | 8.59
2010-07-04 | 9.16
2010-07-05 | 9.98
2010-07-06 | 10.60
2010-07-07 | 10.88
2010-07-08 | 10.82
2010-07-09 | 10.72
2010-07-10 | 11.17
2010-07-11 | 11.16
2010-07-12 | 10.59
2010-07-13 | 10.52
2010-07-14 | 10.40
2010-07-15 | 10.16
2010-07-16 | 10.88
2010-07-17 | 10.66
2010-07-18 | 10.73
2010-07-19 | 9.90
2010-07-20 | 9.65
2010-07-21 | 9.36
2010-07-22 | 9.50
2010-07-23 | 8.90
2010-07-24 | 9.26
2010-07-25 | 9.36
2010-07-26 | 9.49
2010-07-27 | 9.50
2010-07-28 | 9.41
2010-07-29 | 10.02
2010-07-30 | 9.37
2010-07-31 | 9.94
2010-08-01 | 10.35
2010-08-02 | 10.48
2010-08-03 | 10.45
2010-08-04 | 10.78
2010-08-05 | 10.77
2010-08-06 | 11.07
2010-08-07 | 10.29
2010-08-08 | 10.54
2010-08-09 | 10.98
2010-08-10 | 10.94
2010-08-11 | 11.37
2010-08-12 | 11.21
2010-08-13 | 11.26
2010-08-14 | 11.06
2010-08-15 | 10.53
2010-08-16 | 11.01
2010-08-17 | 11.76
2010-08-18 | 11.49
2010-08-19 | 10.95
2010-08-20 | 10.96
2010-08-21 | 11.21
2010-08-22 | 10.85
2010-08-23 | 11.03
2010-08-24 | 10.41
2010-08-25 | 10.13
2010-08-26 | 9.90
2010-08-27 | 10.25
2010-08-28 | 9.72
2010-08-29 | 9.37
2010-08-30 | 8.62
2010-08-31 | 8.45
2010-09-01 | 9.24
2010-09-02 | 9.94
2010-09-03 | 10.17
2010-09-04 | 10.14
2010-09-05 | 10.28
2010-09-06 | 9.76
2010-09-07 | 9.96
2010-09-08 | 10.66
2010-09-09 | 10.14
2010-09-10 | 9.97
2010-09-11 | 11.05
2010-09-12 | 11.40
2010-09-13 | 11.80
2010-09-14 | 11.32
2010-09-15 | 11.10
2010-09-16 | 10.89
2010-09-17 | 11.31
2010-09-18 | 11.62
2010-09-19 | 11.43
2010-09-20 | 11.46
2010-09-21 | 11.70
2010-09-22 | 11.21
2010-09-23 | 11.96
2010-09-24 | 11.64
2010-09-25 | 10.57
2010-09-26 | 9.89
2010-09-27 | 10.17
2010-09-28 | 10.60
2010-09-29 | 10.72
2010-09-30 | 11.12
2010-10-01 | 10.28
2010-10-02 | 9.90
2010-10-03 | 9.90
2010-10-04 | 9.97
2010-10-05 | 9.88
2010-10-06 | 9.87
2010-10-07 | 10.01
2010-10-08 | 10.83
2010-10-09 | 11.12
2010-10-10 | 11.97
2010-10-11 | 11.56
2010-10-12 | 10.93
2010-10-13 | 10.95
2010-10-14 | 10.49
2010-10-15 | 10.34
2010-10-16 | 10.21
2010-10-17 | 10.11
2010-10-18 | 10.14
2010-10-19 | 10.17
2010-10-20 | 10.04
2010-10-21 | 9.14
2010-10-22 | 8.44
2010-10-23 | 8.51
2010-10-24 | 8.19
2010-10-25 | 8.14
2010-10-26 | 8.88
2010-10-27 | 8.86
2010-10-28 | 9.08
2010-10-29 | 9.41
2010-10-30 | 10.20
2010-10-31 | 10.47
2010-11-01 | 10.55
2010-11-02 | 10.46
2010-11-03 | 10.54
2010-11-04 | 11.13
2010-11-05 | 11.19
2010-11-06 | 11.12
2010-11-07 | 11.24
2010-11-08 | 11.82
2010-11-09 | 11.16
2010-11-10 | 10.57
2010-11-11 | 10.51
2010-11-12 | 10.62
2010-11-13 | 10.18
2010-11-14 | 10.26
2010-11-15 | 10.39
2010-11-16 | 10.42
2010-11-17 | 10.73
2010-11-18 | 10.84
2010-11-19 | 10.56
2010-11-20 | 10.61
2010-11-21 | 11.17
2010-11-22 | 10.63
2010-11-23 | 10.76
2010-11-24 | 10.95
2010-11-25 | 10.72
2010-11-26 | 10.42
2010-11-27 | 9.89
2010-11-28 | 10.09
2010-11-29 | 10.09
2010-11-30 | 9.91
2010-12-01 | 9.30
2010-12-02 | 9.05
2010-12-03 | 9.48
2010-12-04 | 10.17
2010-12-05 | 9.37
2010-12-06 | 9.67
2010-12-07 | 9.52
2010-12-08 | 9.03
2010-12-09 | 9.14
2010-12-10 | 9.17
2010-12-11 | 10.11
2010-12-12 | 9.68
2010-12-13 | 9.62
2010-12-14 | 9.95
2010-12-15 | 10.27
2010-12-16 | 10.13
2010-12-17 | 10.07
2010-12-18 | 9.97
2010-12-19 | 9.79
2010-12-20 | 9.87
2010-12-21 | 10.53
2010-12-22 | 11.02
2010-12-23 | 11.14
2010-12-24 | 11.23
2010-12-25 | 11.28
2010-12-26 | 11.06
2010-12-27 | 11.05
2010-12-28 | 11.17
2010-12-29 | 11.36
2010-12-30 | 11.13
2010-12-31 | 10.65
2011-01-01 | 10.56
2011-01-02 | 11.26
2011-01-03 | 11.72
2011-01-04 | 10.65
2011-01-05 | 10.36
2011-01-06 | 10.65
2011-01-07 | 10.41
2011-01-08 | 9.97
2011-01-09 | 10.20
2011-01-10 | 9.74
2011-01-11 | 9.49
2011-01-12 | 9.76
2011-01-13 | 9.86
2011-01-14 | 10.60
2011-01-15 | 10.09
2011-01-16 | 9.59
2011-01-17 | 8.64
2011-01-18 | 8.97
2011-01-19 | 9.62
2011-01-20 | 9.07
2011-01-21 | 9.10
2011-01-22 | 9.07
2011-01-23 | 8.89
2011-01-24 | 9.18
2011-01-25 | 9.28
2011-01-26 | 8.79
2011-01-27 | 8.66
2011-01-28 | 8.29
2011-01-29 | 8.61
2011-01-30 | 8.89
2011-01-31 | 9.50
2011-02-01 | 9.32
2011-02-02 | 9.21
2011-02-03 | 9.67
2011-02-04 | 10.67
2011-02-05 | 10.22
2011-02-06 | 10.40
2011-02-07 | 9.78
2011-02-08 | 9.45
2011-02-09 | 9.52
2011-02-10 | 10.30
2011-02-11 | 10.96
2011-02-12 | 10.67
2011-02-13 | 10.89
2011-02-14 | 11.01
2011-02-15 | 12.05
2011-02-16 | 11.90
2011-02-17 | 11.47
2011-02-18 | 11.07
2011-02-19 | 11.42
2011-02-20 | 10.99
2011-02-21 | 11.30
2011-02-22 | 11.27
2011-02-23 | 11.18
2011-02-24 | 10.32
2011-02-25 | 9.49
2011-02-26 | 9.77
2011-02-27 | 9.81
2011-02-28 | 9.81
2011-03-01 | 9.53
2011-03-02 | 9.73
2011-03-03 | 9.45
2011-03-04 | 9.21
2011-03-05 | 9.05
2011-03-06 | 9.29
2011-03-07 | 9.31
2011-03-08 | 9.81
2011-03-09 | 9.70
2011-03-10 | 10.38
2011-03-11 | 10.94
2011-03-12 | 10.74
2011-03-13 | 10.26
2011-03-14 | 9.88
2011-03-15 | 9.93
2011-03-16 | 9.34
2011-03-17 | 9.59
2011-03-18 | 9.81
2011-03-19 | 9.96
2011-03-20 | 10.48
2011-03-21 | 10.54
2011-03-22 | 10.12
2011-03-23 | 9.83
2011-03-24 | 9.37
2011-03-25 | 9.70
2011-03-26 | 9.95
2011-03-27 | 9.76
2011-03-28 | 9.93
2011-03-29 | 9.47
2011-03-30 | 9.73
2011-03-31 | 10.42
2011-04-01 | 10.66
2011-04-02 | 10.75
2011-04-03 | 10.38
2011-04-04 | 10.55
2011-04-05 | 10.60
2011-04-06 | 10.70
2011-04-07 | 11.17
2011-04-08 | 10.98
2011-04-09 | 10.49
2011-04-10 | 11.15
2011-04-11 | 11.41
2011-04-12 | 11.44
2011-04-13 | 11.00
2011-04-14 | 11.16
2011-04-15 | 10.88
2011-04-16 | 10.65
2011-04-17 | 10.78
2011-04-18 | 10.86
2011-04-19 | 11.14
2011-04-20 | 11.70
2011-04-21 | 11.43
2011-04-22 | 11.54
2011-04-23 | 11.71
2011-04-24 | 11.40
2011-04-25 | 10.68
2011-04-26 | 11.20
2011-04-27 | 11.64
2011-04-28 | 11.27
2011-04-29 | 10.80
2011-04-30 | 10.47
2011-05-01 | 10.14
2011-05-02 | 9.61
2011-05-03 | 9.44
2011-05-04 | 9.17
2011-05-05 | 9.34
2011-05-06 | 8.96
2011-05-07 | 9.21
2011-05-08 | 9.24
2011-05-09 | 9.14
2011-05-10 | 8.74
2011-05-11 | 8.89
2011-05-12 | 8.77
2011-05-13 | 9.09
2011-05-14 | 10.03
2011-05-15 | 10.29
2011-05-16 | 10.81
2011-05-17 | 10.71
2011-05-18 | 10.26
2011-05-19 | 10.24
2011-05-20 | 10.56
2011-05-21 | 10.10
2011-05-22 | 10.16
2011-05-23 | 10.60
2011-05-24 | 10.73
2011-05-25 | 10.63
2011-05-26 | 10.43
2011-05-27 | 10.44
2011-05-28 | 9.98
2011-05-29 | 9.87
2011-05-30 | 9.72
2011-05-31 | 9.92
2011-06-01 | 10.27
2011-06-02 | 10.44
2011-06-03 | 10.01
2011-06-04 | 10.46
2011-06-05 | 10.61
2011-06-06 | 10.23
2011-06-07 | 9.85
2011-06-08 | 9.70
2011-06-09 | 9.97
2011-06-10 | 10.05
2011-06-11 | 10.14
2011-06-12 | 9.84
2011-06-13 | 10.27
2011-06-14 | 10.52
2011-06-15 | 10.33
2011-06-16 | 10.08
2011-06-17 | 9.71
2011-06-18 | 9.60
2011-06-19 | 9.15
2011-06-20 | 9.57
2011-06-21 | 10.01
2011-06-22 | 10.54
2011-06-23 | 10.53
2011-06-24 | 10.15
2011-06-25 | 9.93
2011-06-26 | 10.73
2011-06-27 | 10.63
2011-06-28 | 10.12
2011-06-29 | 10.21
2011-06-30 | 10.12
2011-07-01 | 10.55
2011-07-02 | 10.26
2011-07-03 | 10.19
2011-07-04 | 10.21
2011-07-05 | 9.65
2011-07-06 | 9.17
2011-07-07 | 9.03
2011-07-08 | 9.18
2011-07-09 | 9.58
2011-07-10 | 9.16
2011-07-11 | 8.87
2011-07-12 | 8.40
2011-07-13 | 8.56
2011-07-14 | 8.57
2011-07-15 | 8.32
2011-07-16 | 8.23
2011-07-17 | 8.41
2011-07-18 | 8.46
2011-07-19 | 8.93
2011-07-20 | 8.92
2011-07-21 | 9.29
2011-07-22 | 9.68
2011-07-23 | 9.53
2011-07-24 | 9.30
2011-07-25 | 9.46
2011-07-26 | 9.80
2011-07-27 | 10.31
2011-07-28 | 10.43
2011-07-29 | 11.18
2011-07-30 | 11.68
2011-07-31 | 12.06
2011-08-01 | 12.02
2011-08-02 | 11.79
2011-08-03 | 11.95
2011-08-04 | 10.95
2011-08-05 | 10.55
2011-08-06 | 10.40
2011-08-07 | 10.45
2011-08-08 | 10.17
2011-08-09 | 10.10
2011-08-10 | 9.78
2011-08-11 | 9.69
2011-08-12 | 9.11
2011-08-13 | 8.76
2011-08-14 | 8.51
2011-08-15 | 8.69
2011-08-16 | 8.64
2011-08-17 | 9.07
2011-08-18 | 9.62
2011-08-19 | 9.83
2011-08-20 | 9.72
2011-08-21 | 10.12
2011-08-22 | 10.14
2011-08-23 | 9.98
2011-08-24 | 9.98
2011-08-25 | 10.06
2011-08-26 | 10.05
2011-08-27 | 9.84
2011-08-28 | 9.73
2011-08-29 | 9.82
2011-08-30 | 9.75
2011-08-31 | 9.34
2011-09-01 | 9.35
2011-09-02 | 9.25
2011-09-03 | 9.39
2011-09-04 | 8.94
2011-09-05 | 8.89
2011-09-06 | 10.01
2011-09-07 | 9.77
2011-09-08 | 9.70
2011-09-09 | 9.91
2011-09-10 | 10.41
2011-09-11 | 10.48
2011-09-12 | 9.63
2011-09-13 | 9.44
2011-09-14 | 8.94
2011-09-15 | 9.20
2011-09-16 | 9.05
2011-09-17 | 9.15
2011-09-18 | 9.89
2011-09-19 | 10.00
2011-09-20 | 9.03
2011-09-21 | 8.75
2011-09-22 | 9.20
2011-09-23 | 8.96
2011-09-24 | 8.66
2011-09-25 | 9.18
2011-09-26 | 9.55
2011-09-27 | 10.03
2011-09-28 | 10.29
2011-09-29 | 10.43
2011-09-30 | 11.09
2011-10-01 | 11.16
2011-10-02 | 10.53
2011-10-03 | 10.65
2011-10-04 | 10.75
2011-10-05 | 10.59
2011-10-06 | 10.83
2011-10-07 | 10.93
2011-10-08 | 10.83
2011-10-09 | 10.20
2011-10-10 | 9.86
2011-10-11 | 9.48
2011-10-12 | 9.62
2011-10-13 | 9.86
2011-10-14 | 9.60
2011-10-15 | 9.70
2011-10-16 | 9.80
2011-10-17 | 10.12
2011-10-18 | 10.31
2011-10-19 | 11.02
2011-10-20 | 10.14
2011-10-21 | 10.35
2011-10-22 | 10.85
2011-10-23 | 11.42
2011-10-24 | 12.13
2011-10-25 | 12.32
2011-10-26 | 12.63
2011-10-27 | 11.94
2011-10-28 | 11.64
2011-10-29 | 11.56
2011-10-30 | 11.77
2011-10-31 | 11.29
2011-11-01 | 11.65
2011-11-02 | 11.26
2011-11-03 | 11.83
2011-11-04 | 11.05
2011-11-05 | 11.23
2011-11-06 | 11.13
2011-11-07 | 10.80
2011-11-08 | 10.92
2011-11-09 | 10.96
2011-11-10 | 11.28
2011-11-11 | 11.17
2011-11-12 | 11.11
2011-11-13 | 10.89
2011-11-14 | 11.19
2011-11-15 | 10.49
2011-11-16 | 10.55
2011-11-17 | 10.40
2011-11-18 | 10.94
2011-11-19 | 10.94
2011-11-20 | 10.19
2011-11-21 | 10.10
2011-11-22 | 10.09
2011-11-23 | 9.92
2011-11-24 | 9.42
2011-11-25 | 9.97
2011-11-26 | 9.58
2011-11-27 | 9.38
2011-11-28 | 9.68
2011-11-29 | 10.25
2011-11-30 | 10.20
2011-12-01 | 10.09
2011-12-02 | 9.97
2011-12-03 | 9.83
2011-12-04 | 10.33
2011-12-05 | 10.57
2011-12-06 | 10.70
2011-12-07 | 10.84
2011-12-08 | 10.96
2011-12-09 | 10.38
2011-12-10 | 11.14
2011-12-11 | 11.33
2011-12-12 | 10.75
2011-12-13 | 10.83
2011-12-14 | 11.39
2011-12-15 | 11.59
2011-12-16 | 11.38
2011-12-17 | 11.02
2011-12-18 | 10.77
2011-12-19 | 10.47
2011-12-20 | 10.42
2011-12-21 | 9.58
2011-12-22 | 9.90
2011-12-23 | 10.01
2011-12-24 | 9.71
2011-12-25 | 9.76
2011-12-26 | 9.90
2011-12-27 | 9.18
2011-12-28 | 8.78
2011-12-29 | 8.78
2011-12-30 | 8.47
2011-12-31 | 8.98
2012-01-01 | 9.00
2012-01-02 | 9.56
2012-01-03 | 10.14
2012-01-04 | 11.26
2012-01-05 | 11.74
2012-01-06 | 11.57
2012-01-07 | 10.77
2012-01-08 | 10.45
2012-01-09 | 10.70
2012-01-10 | 11.70
2012-01-11 | 11.66
2012-01-12 | 11.36
2012-01-13 | 12.08
2012-01-14 | 11.54
2012-01-15 | 11.47
2012-01-16 | 11.18
2012-01-17 | 10.41
2012-01-18 | 9.63
2012-01-19 | 9.08
2012-01-20 | 9.04
2012-01-21 | 9.45
2012-01-22 | 10.15
2012-01-23 | 10.24
2012-01-24 | 9.47
2012-01-25 | 9.57
2012-01-26 | 10.01
2012-01-27 | 9.34
2012-01-28 | 9.75
2012-01-29 | 10.03
2012-01-30 | 9.55
2012-01-31 | 9.74
2012-02-01 | 10.41
2012-02-02 | 10.12
2012-02-03 | 10.77
2012-02-04 | 11.01
2012-02-05 | 11.00
2012-02-06 | 10.22
2012-02-07 | 10.96
2012-02-08 | 10.63
2012-02-09 | 10.26
2012-02-10 | 10.66
2012-02-11 | 9.78
2012-02-12 | 9.82
2012-02-13 | 10.23
2012-02-14 | 9.81
2012-02-15 | 9.48
2012-02-16 | 9.98
2012-02-17 | 8.99
2012-02-18 | 9.27
2012-02-19 | 8.61
2012-02-20 | 9.09
2012-02-21 | 8.36
2012-02-22 | 8.63
2012-02-23 | 8.55
2012-02-24 | 8.49
2012-02-25 | 9.43
2012-02-26 | 9.24
2012-02-27 | 9.22
2012-02-28 | 9.46
2012-02-29 | 9.93
2012-03-01 | 9.32
2012-03-02 | 9.83
2012-03-03 | 9.95
2012-03-04 | 10.43
2012-03-05 | 10.68
2012-03-06 | 10.81
2012-03-07 | 10.41
2012-03-08 | 10.67
2012-03-09 | 10.35
2012-03-10 | 10.08
2012-03-11 | 10.02
2012-03-12 | 10.20
2012-03-13 | 10.63
2012-03-14 | 10.21
2012-03-15 | 10.52
2012-03-16 | 10.73
2012-03-17 | 9.66
2012-03-18 | 9.14
2012-03-19 | 8.44
2012-03-20 | 9.20
2012-03-21 | 9.66
2012-03-22 | 9.60
2012-03-23 | 10.23
2012-03-24 | 10.10
2012-03-25 | 10.32
2012-03-26 | 10.00
2012-03-27 | 9.21
2012-03-28 | 9.12
2012-03-29 | 8.85
2012-03-30 | 9.29
2012-03-31 | 10.00
2012-04-01 | 10.53
2012-04-02 | 11.13
2012-04-03 | 9.86
2012-04-04 | 10.08
2012-04-05 | 10.12
2012-04-06 | 10.04
2012-04-07 | 10.02
2012-04-08 | 9.70
2012-04-09 | 10.19
2012-04-10 | 10.54
2012-04-11 | 10.92
2012-04-12 | 10.83
2012-04-13 | 10.93
2012-04-14 | 10.65
2012-04-15 | 10.30
2012-04-16 | 10.40
2012-04-17 | 11.11
2012-04-18 | 10.38
2012-04-19 | 9.78
2012-04-20 | 9.30
2012-04-21 | 9.84
2012-04-22 | 9.94
2012-04-23 | 10.10
2012-04-24 | 9.80
2012-04-25 | 9.35
2012-04-26 | 9.75
2012-04-27 | 9.20
2012-04-28 | 9.59
2012-04-29 | 9.69
2012-04-30 | 8.94
2012-05-01 | 8.91
2012-05-02 | 9.65
2012-05-03 | 9.97
2012-05-04 | 10.90
2012-05-05 | 10.27
2012-05-06 | 10.30
2012-05-07 | 9.75
2012-05-08 | 10.13
2012-05-09 | 9.90
2012-05-10 | 9.69
2012-05-11 | 9.39
2012-05-12 | 9.47
2012-05-13 | 10.19
2012-05-14 | 10.71
2012-05-15 | 10.13
2012-05-16 | 9.63
2012-05-17 | 9.59
2012-05-18 | 8.58
2012-05-19 | 9.02
2012-05-20 | 9.55
2012-05-21 | 10.22
2012-05-22 | 10.17
2012-05-23 | 10.51
2012-05-24 | 10.72
2012-05-25 | 11.07
2012-05-26 | 10.65
2012-05-27 | 10.03
2012-05-28 | 9.85
2012-05-29 | 10.08
2012-05-30 | 10.30
2012-05-31 | 10.77
2012-06-01 | 11.26
2012-06-02 | 11.15
2012-06-03 | 10.63
2012-06-04 | 10.43
2012-06-05 | 10.01
2012-06-06 | 9.88
2012-06-07 | 9.35
2012-06-08 | 8.79
2012-06-09 | 9.10
2012-06-10 | 9.20
2012-06-11 | 9.20
2012-06-12 | 9.03
2012-06-13 | 8.82
2012-06-14 | 8.07
2012-06-15 | 8.74
2012-06-16 | 8.78
2012-06-17 | 9.04
2012-06-18 | 8.84
2012-06-19 | 9.29
2012-06-20 | 9.85
2012-06-21 | 9.89
2012-06-22 | 10.16
2012-06-23 | 10.15
2012-06-24 | 9.57
2012-06-25 | 10.24
2012-06-26 | 10.80
2012-06-27 | 11.14
2012-06-28 | 11.27
2012-06-29 | 10.59
2012-06-30 | 10.59
2012-07-01 | 10.91
2012-07-02 | 10.57
2012-07-03 | 10.32
2012-07-04 | 10.11
2012-07-05 | 10.58
2012-07-06 | 10.68
2012-07-07 | 10.72
2012-07-08 | 10.89
2012-07-09 | 10.52
2012-07-10 | 10.39
2012-07-11 | 10.24
2012-07-12 | 10.74
2012-07-13 | 10.59
2012-07-14 | 10.06
2012-07-15 | 9.46
2012-07-16 | 9.70
2012-07-17 | 9.89
2012-07-18 | 9.66
2012-07-19 | 9.30
2012-07-20 | 9.11
2012-07-21 | 8.78
2012-07-22 | 8.87
2012-07-23 | 8.33
2012-07-24 | 8.19
2012-07-25 | 8.16
2012-07-26 | 8.04
2012-07-27 | 8.30
2012-07-28 | 8.41
2012-07-29 | 8.02
2012-07-30 | 7.72
2012-07-31 | 7.89
2012-08-01 | 8.22
2012-08-02 | 8.37
2012-08-03 | 8.45
2012-08-04 | 8.06
2012-08-05 | 8.10
2012-08-06 | 8.24
2012-08-07 | 8.74
2012-08-08 | 8.81
2012-08-09 | 8.55
2012-08-10 | 7.99
2012-08-11 | 7.88
2012-08-12 | 8.60
2012-08-13 | 8.71
2012-08-14 | 8.41
2012-08-15 | 8.20
2012-08-16 | 8.40
2012-08-17 | 9.02
2012-08-18 | 9.58
2012-08-19 | 9.74
2012-08-20 | 9.88
2012-08-21 | 9.35
2012-08-22 | 9.61
2012-08-23 | 9.69
2012-08-24 | 10.14
2012-08-25 | 10.76
2012-08-26 | 10.49
2012-08-27 | 11.13
2012-08-28 | 11.18
2012-08-29 | 11.21
2012-08-30 | 11.25
2012-08-31 | 10.38
2012-09-01 | 9.99
2012-09-02 | 9.94
2012-09-03 | 10.20
2012-09-04 | 9.97
2012-09-05 | 9.59
2012-09-06 | 9.56
2012-09-07 | 9.55
2012-09-08 | 9.64
2012-09-09 | 10.07
2012-09-10 | 9.72
2012-09-11 | 10.36
2012-09-12 | 9.67
2012-09-13 | 9.80
2012-09-14 | 10.07
2012-09-15 | 10.47
2012-09-16 | 10.81
2012-09-17 | 10.90
2012-09-18 | 11.45
2012-09-19 | 11.88
2012-09-20 | 11.92
2012-09-21 | 11.73
2012-09-22 | 10.84
2012-09-23 | 10.36
2012-09-24 | 10.43
2012-09-25 | 9.86
2012-09-26 | 10.45
2012-09-27 | 10.28
2012-09-28 | 10.64
2012-09-29 | 10.57
2012-09-30 | 10.45
2012-10-01 | 9.82
2012-10-02 | 9.81
2012-10-03 | 9.29
2012-10-04 | 9.53
2012-10-05 | 10.24
2012-10-06 | 10.76
2012-10-07 | 10.84
2012-10-08 | 10.79
2012-10-09 | 10.67
2012-10-10 | 10.46
2012-10-11 | 10.43
2012-10-12 | 10.79
2012-10-13 | 10.57
2012-10-14 | 9.81
2012-10-15 | 9.95
2012-10-16 | 9.87
2012-10-17 | 10.05
2012-10-18 | 9.97
2012-10-19 | 9.77
2012-10-20 | 10.43
2012-10-21 | 10.62
2012-10-22 | 10.75
2012-10-23 | 10.46
2012-10-24 | 10.13
2012-10-25 | 10.55
2012-10-26 | 10.30
2012-10-27 | 10.48
2012-10-28 | 10.88
2012-10-29 | 11.04
2012-10-30 | 10.42
2012-10-31 | 10.32
2012-11-01 | 10.44
2012-11-02 | 9.94
2012-11-03 | 9.64
2012-11-04 | 9.60
2012-11-05 | 9.39
2012-11-06 | 10.16
2012-11-07 | 10.50
2012-11-08 | 10.35
2012-11-09 | 10.09
2012-11-10 | 10.13
2012-11-11 | 9.91
2012-11-12 | 9.70
2012-11-13 | 10.01
2012-11-14 | 10.21
2012-11-15 | 10.33
2012-11-16 | 11.00
2012-11-17 | 10.49
2012-11-18 | 10.08
2012-11-19 | 9.83
2012-11-20 | 9.34
2012-11-21 | 8.93
2012-11-22 | 8.58
2012-11-23 | 9.08
2012-11-24 | 8.54
2012-11-25 | 8.63
2012-11-26 | 9.30
2012-11-27 | 9.38
2012-11-28 | 9.56
2012-11-29 | 9.55
2012-11-30 | 9.47
2012-12-01 | 9.55
2012-12-02 | 9.85
2012-12-03 | 10.29
2012-12-04 | 10.82
2012-12-05 | 11.11
2012-12-06 | 10.73
2012-12-07 | 9.96
2012-12-08 | 10.17
2012-12-09 | 10.75
2012-12-10 | 10.33
2012-12-11 | 10.48
2012-12-12 | 10.18
2012-12-13 | 9.93
2012-12-14 | 9.69
2012-12-15 | 10.25
2012-12-16 | 10.36
2012-12-17 | 9.99
2012-12-18 | 10.12
2012-12-19 | 9.93
2012-12-20 | 10.13
2012-12-21 | 10.43
2012-12-22 | 10.75
2012-12-23 | 10.74
2012-12-24 | 10.17
2012-12-25 | 10.06
2012-12-26 | 10.05
2012-12-27 | 10.26
2012-12-28 | 10.54
2012-12-29 | 10.24
2012-12-30 | 10.47
2012-12-31 | 10.71
2013-01-01 | 10.03
2013-01-02 | 10.02
2013-01-03 | 10.59
2013-01-04 | 10.98
2013-01-05 | 10.69
2013-01-06 | 10.57
2013-01-07 | 11.15
2013-01-08 | 11.14
2013-01-09 | 11.07
2013-01-10 | 10.84
2013-01-11 | 10.80
2013-01-12 | 10.70
2013-01-13 | 10.29
2013-01-14 | 10.53
2013-01-15 | 10.47
2013-01-16 | 10.23
2013-01-17 | 10.13
2013-01-18 | 9.65
2013-01-19 | 10.04
2013-01-20 | 9.39
2013-01-21 | 9.47
2013-01-22 | 9.58
2013-01-23 | 9.69
2013-01-24 | 9.97
2013-01-25 | 9.16
2013-01-26 | 9.24
2013-01-27 | 8.95
2013-01-28 | 8.71
2013-01-29 | 9.20
2013-01-30 | 9.70
2013-01-31 | 10.14
2013-02-01 | 10.33
2013-02-02 | 10.22
2013-02-03 | 10.74
2013-02-04 | 10.39
2013-02-05 | 10.38
2013-02-06 | 10.58
2013-02-07 | 10.36
2013-02-08 | 10.77
2013-02-09 | 10.51
2013-02-10 | 10.59
2013-02-11 | 10.45
2013-02-12 | 10.37
2013-02-13 | 10.87
2013-02-14 | 10.73
2013-02-15 | 10.66
2013-02-16 | 10.95
2013-02-17 | 11.11
2013-02-18 | 11.14
2013-02-19 | 11.52
2013-02-20 | 10.97
2013-02-21 | 10.98
2013-02-22 | 11.25
2013-02-23 | 10.88
2013-02-24 | 10.93
2013-02-25 | 10.73
2013-02-26 | 10.10
2013-02-27 | 9.25
2013-02-28 | 8.68
2013-03-01 | 8.59
2013-03-02 | 8.44
2013-03-03 | 8.10
2013-03-04 | 8.36
2013-03-05 | 7.94
2013-03-06 | 8.13
2013-03-07 | 7.87
2013-03-08 | 7.52
2013-03-09 | 8.04
2013-03-10 | 8.03
2013-03-11 | 8.21
2013-03-12 | 8.50
2013-03-13 | 9.25
2013-03-14 | 9.86
2013-03-15 | 9.91
2013-03-16 | 9.77
2013-03-17 | 10.21
2013-03-18 | 10.25
2013-03-19 | 10.19
2013-03-20 | 9.93
2013-03-21 | 10.20
2013-03-22 | 10.39
2013-03-23 | 10.15
2013-03-24 | 10.57
2013-03-25 | 10.67
2013-03-26 | 11.03
2013-03-27 | 10.98
2013-03-28 | 11.04
2013-03-29 | 10.63
2013-03-30 | 10.59
2013-03-31 | 10.39
2013-04-01 | 10.81
2013-04-02 | 10.63
2013-04-03 | 11.36
2013-04-04 | 11.32
2013-04-05 | 11.26
2013-04-06 | 11.67
2013-04-07 | 10.93
2013-04-08 | 10.79
2013-04-09 | 11.34
2013-04-10 | 11.03
2013-04-11 | 10.89
2013-04-12 | 11.48
2013-04-13 | 11.16
2013-04-14 | 11.40
2013-04-15 | 11.05
2013-04-16 | 11.27
2013-04-17 | 10.47
2013-04-18 | 10.82
2013-04-19 | 10.13
2013-04-20 | 10.44
2013-04-21 | 11.04
2013-04-22 | 11.03
2013-04-23 | 10.57
2013-04-24 | 10.73
2013-04-25 | 10.33
2013-04-26 | 10.10
2013-04-27 | 10.35
2013-04-28 | 9.73
2013-04-29 | 9.64
2013-04-30 | 9.77
2013-05-01 | 10.03
2013-05-02 | 9.75
2013-05-03 | 10.43
2013-05-04 | 9.58
2013-05-05 | 9.57
2013-05-06 | 9.63
2013-05-07 | 9.51
2013-05-08 | 9.38
2013-05-09 | 9.12
2013-05-10 | 9.35
2013-05-11 | 8.99
2013-05-12 | 9.45
2013-05-13 | 8.92
2013-05-14 | 9.20
2013-05-15 | 8.91
2013-05-16 | 9.00
2013-05-17 | 8.66
2013-05-18 | 9.40
2013-05-19 | 9.33
2013-05-20 | 9.62
2013-05-21 | 9.31
2013-05-22 | 9.80
2013-05-23 | 10.27
2013-05-24 | 9.71
2013-05-25 | 9.66
2013-05-26 | 9.71
2013-05-27 | 10.56
2013-05-28 | 10.24
2013-05-29 | 10.49
2013-05-30 | 10.03
2013-05-31 | 9.81
2013-06-01 | 9.95
2013-06-02 | 9.95
2013-06-03 | 9.53
2013-06-04 | 10.08
2013-06-05 | 9.20
2013-06-06 | 9.03
2013-06-07 | 9.35
2013-06-08 | 9.89
2013-06-09 | 9.36
2013-06-10 | 9.08
2013-06-11 | 9.16
2013-06-12 | 9.45
2013-06-13 | 9.75
2013-06-14 | 9.83
2013-06-15 | 9.35
2013-06-16 | 9.55
2013-06-17 | 9.89
2013-06-18 | 9.26
2013-06-19 | 9.82
2013-06-20 | 9.70
2013-06-21 | 9.56
2013-06-22 | 9.06
2013-06-23 | 9.63
2013-06-24 | 9.50
2013-06-25 | 9.85
2013-06-26 | 10.34
2013-06-27 | 9.98
2013-06-28 | 10.35
2013-06-29 | 10.33
2013-06-30 | 10.07
2013-07-01 | 10.18
2013-07-02 | 10.73
2013-07-03 | 10.70
2013-07-04 | 10.41
2013-07-05 | 10.67
2013-07-06 | 11.01
2013-07-07 | 10.97
2013-07-08 | 11.01
2013-07-09 | 10.46
2013-07-10 | 9.48
2013-07-11 | 9.55
2013-07-12 | 9.36
2013-07-13 | 9.57
2013-07-14 | 9.73
2013-07-15 | 9.82
2013-07-16 | 9.88
2013-07-17 | 9.57
2013-07-18 | 10.25
2013-07-19 | 9.73
2013-07-20 | 9.87
2013-07-21 | 9.33
2013-07-22 | 9.92
2013-07-23 | 10.31
2013-07-24 | 10.28
2013-07-25 | 11.10
2013-07-26 | 10.85
2013-07-27 | 10.34
2013-07-28 | 10.53
2013-07-29 | 10.26
2013-07-30 | 9.98
2013-07-31 | 10.33
2013-08-01 | 10.41
2013-08-02 | 10.68
2013-08-03 | 11.19
2013-08-04 | 11.34
2013-08-05 | 10.90
2013-08-06 | 10.82
2013-08-07 | 10.68
2013-08-08 | 10.14
2013-08-09 | 10.99
2013-08-10 | 11.05
2013-08-11 | 10.57
2013-08-12 | 9.91
2013-08-13 | 10.06
2013-08-14 | 10.41
2013-08-15 | 9.65
2013-08-16 | 9.41
2013-08-17 | 8.93
2013-08-18 | 8.97
2013-08-19 | 8.47
2013-08-20 | 8.19
2013-08-21 | 8.62
2013-08-22 | 8.68
2013-08-23 | 8.37
2013-08-24 | 8.86
2013-08-25 | 9.57
2013-08-26 | 10.24
2013-08-27 | 9.86
2013-08-28 | 9.37
2013-08-29 | 9.84
2013-08-30 | 10.44
2013-08-31 | 9.98
2013-09-01 | 10.16
2013-09-02 | 10.68
2013-09-03 | 10.50
2013-09-04 | 10.84
2013-09-05 | 10.30
2013-09-06 | 10.23
2013-09-07 | 9.72
2013-09-08 | 9.04
2013-09-09 | 9.26
2013-09-10 | 9.07
2013-09-11 | 9.29
2013-09-12 | 8.98
2013-09-13 | 8.87
2013-09-14 | 9.39
2013-09-15 | 9.71
2013-09-16 | 9.45
2013-09-17 | 9.64
2013-09-18 | 9.32
2013-09-19 | 10.07
2013-09-20 | 10.61
2013-09-21 | 10.81
2013-09-22 | 11.57
2013-09-23 | 11.03
2013-09-24 | 10.86
2013-09-25 | 10.59
2013-09-26 | 10.52
2013-09-27 | 10.25
2013-09-28 | 10.11
2013-09-29 | 9.56
2013-09-30 | 9.82
2013-10-01 | 9.93
2013-10-02 | 9.84
2013-10-03 | 9.34
2013-10-04 | 8.94
2013-10-05 | 9.03
2013-10-06 | 8.01
2013-10-07 | 8.38
2013-10-08 | 8.81
2013-10-09 | 8.75
2013-10-10 | 8.58
2013-10-11 | 9.03
2013-10-12 | 8.95
2013-10-13 | 8.82
2013-10-14 | 8.56
2013-10-15 | 7.93
2013-10-16 | 8.73
2013-10-17 | 8.47
2013-10-18 | 8.97
2013-10-19 | 9.50
2013-10-20 | 9.64
2013-10-21 | 9.52
2013-10-22 | 9.52
2013-10-23 | 9.81
2013-10-24 | 10.39
2013-10-25 | 9.49
2013-10-26 | 8.95
2013-10-27 | 9.17
2013-10-28 | 9.61
2013-10-29 | 10.63
2013-10-30 | 10.06
2013-10-31 | 10.64
2013-11-01 | 9.50
2013-11-02 | 9.17
2013-11-03 | 9.18
2013-11-04 | 9.42
2013-11-05 | 9.22
2013-11-06 | 8.66
2013-11-07 | 8.90
2013-11-08 | 9.83
2013-11-09 | 10.75
2013-11-10 | 10.87
2013-11-11 | 10.53
2013-11-12 | 10.16
2013-11-13 | 10.10
2013-11-14 | 10.42
2013-11-15 | 10.78
2013-11-16 | 10.64
2013-11-17 | 10.86
2013-11-18 | 11.07
2013-11-19 | 11.12
2013-11-20 | 11.76
2013-11-21 | 11.49
2013-11-22 | 11.45
2013-11-23 | 11.31
2013-11-24 | 11.63
2013-11-25 | 12.01
2013-11-26 | 11.94
2013-11-27 | 12.01
2013-11-28 | 11.00
2013-11-29 | 10.61
2013-11-30 | 10.07
2013-12-01 | 10.09
2013-12-02 | 9.22
2013-12-03 | 9.14
2013-12-04 | 8.73
2013-12-05 | 8.47
2013-12-06 | 8.07
2013-12-07 | 7.78
2013-12-08 | 7.19
2013-12-09 | 7.07
2013-12-10 | 7.02
2013-12-11 | 7.50
2013-12-12 | 8.28
2013-12-13 | 9.14
2013-12-14 | 9.66
2013-12-15 | 10.18
2013-12-16 | 10.73
2013-12-17 | 11.28
2013-12-18 | 11.05
2013-12-19 | 11.11
2013-12-20 | 11.31
2013-12-21 | 11.44
2013-12-22 | 12.08
2013-12-23 | 11.64
2013-12-24 | 12.05
2013-12-25 | 11.52
2013-12-26 | 11.09
2013-12-27 | 11.14
2013-12-28 | 10.62
2013-12-29 | 9.93
2013-12-30 | 9.76
2013-12-31 | 9.52
2014-01-01 | 10.24
2014-01-02 | 10.52
2014-01-03 | 10.07
2014-01-04 | 10.71
2014-01-05 | 9.94
2014-01-06 | 10.25
2014-01-07 | 9.67
2014-01-08 | 10.04
2014-01-09 | 10.58
2014-01-10 | 10.48
2014-01-11 | 11.05
2014-01-12 | 11.28
2014-01-13 | 10.75
2014-01-14 | 11.12
2014-01-15 | 10.94
2014-01-16 | 10.60
2014-01-17 | 11.19
2014-01-18 | 10.70
2014-01-19 | 11.03
2014-01-20 | 11.04
2014-01-21 | 10.78
2014-01-22 | 10.32
2014-01-23 | 10.28
2014-01-24 | 10.52
2014-01-25 | 10.26
2014-01-26 | 9.71
2014-01-27 | 10.44
2014-01-28 | 10.49
2014-01-29 | 10.19
2014-01-30 | 10.60
2014-01-31 | 10.62
2014-02-01 | 10.50
2014-02-02 | 10.51
2014-02-03 | 10.03
2014-02-04 | 10.61
2014-02-05 | 11.23
2014-02-06 | 10.62
2014-02-07 | 9.91
2014-02-08 | 10.08
2014-02-09 | 10.80
2014-02-10 | 10.38
2014-02-11 | 10.10
2014-02-12 | 10.23
2014-02-13 | 10.31
2014-02-14 | 10.04
2014-02-15 | 9.91
2014-02-16 | 9.78
2014-02-17 | 10.12
2014-02-18 | 10.21
2014-02-19 | 9.28
2014-02-20 | 9.40
2014-02-21 | 9.92
2014-02-22 | 9.43
2014-02-23 | 9.36
2014-02-24 | 9.80
2014-02-25 | 9.46
2014-02-26 | 9.61
2014-02-27 | 9.38
2014-02-28 | 9.66
2014-03-01 | 9.76
2014-03-02 | 9.91
2014-03-03 | 9.70
2014-03-04 | 8.96
2014-03-05 | 9.68
2014-03-06 | 9.71
2014-03-07 | 9.45
2014-03-08 | 9.56
2014-03-09 | 9.62
2014-03-10 | 9.77
2014-03-11 | 9.81
2014-03-12 | 9.84
2014-03-13 | 9.50
2014-03-14 | 9.63
2014-03-15 | 9.53
2014-03-16 | 9.95
2014-03-17 | 10.70
2014-03-18 | 11.52
2014-03-19 | 10.69
2014-03-20 | 11.19
2014-03-21 | 11.07
2014-03-22 | 11.50
2014-03-23 | 11.26
2014-03-24 | 11.05
2014-03-25 | 10.89
2014-03-26 | 10.53
2014-03-27 | 10.77
2014-03-28 | 10.44
2014-03-29 | 10.80
2014-03-30 | 10.31
2014-03-31 | 9.77
2014-04-01 | 9.60
2014-04-02 | 9.71
2014-04-03 | 9.40
2014-04-04 | 9.71
2014-04-05 | 9.24
2014-04-06 | 8.78
2014-04-07 | 8.57
2014-04-08 | 8.82
2014-04-09 | 8.98
2014-04-10 | 8.89
2014-04-11 | 8.60
2014-04-12 | 8.64
2014-04-13 | 8.54
2014-04-14 | 8.04
2014-04-15 | 7.59
2014-04-16 | 8.04
2014-04-17 | 8.13
2014-04-18 | 7.88
2014-04-19 | 8.20
2014-04-20 | 8.74
2014-04-21 | 8.66
2014-04-22 | 8.74
2014-04-23 | 8.69
2014-04-24 | 9.13
2014-04-25 | 9.02
2014-04-26 | 9.18
2014-04-27 | 9.35
2014-04-28 | 10.11
2014-04-29 | 10.05
2014-04-30 | 10.00
2014-05-01 | 9.66
2014-05-02 | 9.30
2014-05-03 | 9.10
2014-05-04 | 8.81
2014-05-05 | 8.92
2014-05-06 | 9.40
2014-05-07 | 9.39
2014-05-08 | 9.60
2014-05-09 | 10.12
2014-05-10 | 10.04
2014-05-11 | 10.39
2014-05-12 | 9.92
2014-05-13 | 10.14
2014-05-14 | 10.17
2014-05-15 | 10.24
2014-05-16 | 10.65
2014-05-17 | 10.95
2014-05-18 | 11.35
2014-05-19 | 11.42
2014-05-20 | 11.10
2014-05-21 | 11.19
2014-05-22 | 10.35
2014-05-23 | 10.52
2014-05-24 | 10.60
2014-05-25 | 10.26
2014-05-26 | 10.81
2014-05-27 | 11.45
2014-05-28 | 11.72
2014-05-29 | 11.96
2014-05-30 | 11.87
2014-05-31 | 11.76
2014-06-01 | 11.38
2014-06-02 | 11.22
2014-06-03 | 11.65
2014-06-04 | 12.10
2014-06-05 | 12.28
2014-06-06 | 11.55
2014-06-07 | 11.39
2014-06-08 | 11.75
2014-06-09 | 11.07
2014-06-10 | 10.59
2014-06-11 | 10.84
2014-06-12 | 11.19
2014-06-13 | 11.52
2014-06-14 | 11.38
2014-06-15 | 11.77
2014-06-16 | 11.98
2014-06-17 | 11.54
2014-06-18 | 10.70
2014-06-19 | 10.81
2014-06-20 | 10.72
2014-06-21 | 10.10
2014-06-22 | 10.04
2014-06-23 | 9.87
2014-06-24 | 10.14
2014-06-25 | 9.68
2014-06-26 | 9.20
2014-06-27 | 8.90
2014-06-28 | 9.19
2014-06-29 | 9.10
2014-06-30 | 9.24
2014-07-01 | 9.13
2014-07-02 | 9.04
2014-07-03 | 9.38
2014-07-04 | 10.13
2014-07-05 | 10.87
2014-07-06 | 10.41
2014-07-07 | 10.88
2014-07-08 | 10.41
2014-07-09 | 10.27
2014-07-10 | 10.84
2014-07-11 | 10.84
2014-07-12 | 10.48
2014-07-13 | 9.99
2014-07-14 | 9.74
2014-07-15 | 9.70
2014-07-16 | 9.92
2014-07-17 | 9.79
2014-07-18 | 9.05
2014-07-19 | 8.32
2014-07-20 | 9.00
2014-07-21 | 8.81
2014-07-22 | 9.01
2014-07-23 | 9.27
2014-07-24 | 9.07
2014-07-25 | 9.16
2014-07-26 | 9.40
2014-07-27 | 10.20
2014-07-28 | 10.36
2014-07-29 | 10.83
2014-07-30 | 10.74
2014-07-31 | 10.33
2014-08-01 | 10.80
2014-08-02 | 11.48
2014-08-03 | 10.88
2014-08-04 | 10.91
2014-08-05 | 10.98
2014-08-06 | 10.85
2014-08-07 | 10.41
2014-08-08 | 10.26
2014-08-09 | 10.62
2014-08-10 | 9.88
2014-08-11 | 9.65
2014-08-12 | 9.27
2014-08-13 | 9.85
2014-08-14 | 10.36
2014-08-15 | 10.52
2014-08-16 | 10.15
2014-08-17 | 9.96
2014-08-18 | 9.77
2014-08-19 | 9.94
2014-08-20 | 9.37
2014-08-21 | 9.36
2014-08-22 | 8.77
2014-08-23 | 8.15
2014-08-24 | 8.06
2014-08-25 | 8.88
2014-08-26 | 8.85
2014-08-27 | 8.24
2014-08-28 | 7.47
2014-08-29 | 7.66
2014-08-30 | 7.44
2014-08-31 | 7.67
2014-09-01 | 8.56
2014-09-02 | 8.38
2014-09-03 | 8.88
2014-09-04 | 8.86
2014-09-05 | 9.74
2014-09-06 | 10.21
2014-09-07 | 10.79
2014-09-08 | 9.81
2014-09-09 | 9.83
2014-09-10 | 9.68
2014-09-11 | 10.01
2014-09-12 | 9.62
2014-09-13 | 9.85
2014-09-14 | 9.62
2014-09-15 | 9.21
2014-09-16 | 9.31
2014-09-17 | 9.11
2014-09-18 | 9.10
2014-09-19 | 8.63
2014-09-20 | 8.26
2014-09-21 | 7.85
2014-09-22 | 8.44
2014-09-23 | 7.78
2014-09-24 | 8.33
2014-09-25 | 8.22
2014-09-26 | 8.23
2014-09-27 | 8.57
2014-09-28 | 8.51
2014-09-29 | 8.13
2014-09-30 | 8.20
2014-10-01 | 8.94
2014-10-02 | 8.91
2014-10-03 | 9.09
2014-10-04 | 9.82
2014-10-05 | 9.85
2014-10-06 | 9.51
2014-10-07 | 9.95
2014-10-08 | 9.88
2014-10-09 | 9.86
2014-10-10 | 9.80
2014-10-11 | 9.34
2014-10-12 | 9.71
2014-10-13 | 10.16
2014-10-14 | 10.08
2014-10-15 | 9.05
2014-10-16 | 9.26
2014-10-17 | 9.47
2014-10-18 | 9.43
2014-10-19 | 9.59
2014-10-20 | 9.76
2014-10-21 | 10.22
2014-10-22 | 10.25
2014-10-23 | 10.32
2014-10-24 | 10.19
2014-10-25 | 10.51
2014-10-26 | 10.89
2014-10-27 | 10.43
2014-10-28 | 10.23
2014-10-29 | 10.94
2014-10-30 | 11.07
2014-10-31 | 11.13
2014-11-01 | 10.85
2014-11-02 | 10.66
2014-11-03 | 10.38
2014-11-04 | 10.31
2014-11-05 | 10.79
2014-11-06 | 10.77
2014-11-07 | 11.62
2014-11-08 | 11.28
2014-11-09 | 10.81
2014-11-10 | 10.90
2014-11-11 | 10.77
2014-11-12 | 10.80
2014-11-13 | 10.63
2014-11-14 | 10.98
2014-11-15 | 10.57
2014-11-16 | 11.14
2014-11-17 | 10.89
2014-11-18 | 10.55
2014-11-19 | 10.37
2014-11-20 | 10.41
2014-11-21 | 9.59
2014-11-22 | 9.24
2014-11-23 | 9.47
2014-11-24 | 9.46
2014-11-25 | 9.96
2014-11-26 | 9.50
2014-11-27 | 9.19
2014-11-28 | 8.44
2014-11-29 | 8.11
2014-11-30 | 7.96
2014-12-01 | 8.38
2014-12-02 | 8.58
2014-12-03 | 8.19
2014-12-04 | 8.40
2014-12-05 | 8.55
2014-12-06 | 8.90
2014-12-07 | 8.77
2014-12-08 | 8.80
2014-12-09 | 8.45
2014-12-10 | 8.99
2014-12-11 | 9.32
2014-12-12 | 9.09
2014-12-13 | 9.51
2014-12-14 | 9.82
2014-12-15 | 9.84
2014-12-16 | 10.13
2014-12-17 | 10.05
2014-12-18 | 9.58
2014-12-19 | 9.69
2014-12-20 | 9.73
2014-12-21 | 9.85
2014-12-22 | 10.15
2014-12-23 | 9.73
2014-12-24 | 9.42
2014-12-25 | 9.51
2014-12-26 | 9.88
2014-12-27 | 10.18
2014-12-28 | 9.46
2014-12-29 | 9.65
2014-12-30 | 9.45
2014-12-31 | 9.71
2015-01-01 | 10.12
2015-01-02 | 10.04
2015-01-03 | 10.21
2015-01-04 | 9.77
2015-01-05 | 9.79
2015-01-06 | 10.20
2015-01-07 | 10.76
2015-01-08 | 10.55
2015-01-09 | 10.35
2015-01-10 | 10.22
2015-01-11 | 10.60
2015-01-12 | 10.19
2015-01-13 | 9.96
2015-01-14 | 10.34
2015-01-15 | 10.06
2015-01-16 | 10.29
2015-01-17 | 10.61
2015-01-18 | 11.19
2015-01-19 | 11.41
2015-01-20 | 11.40
2015-01-21 | 11.33
2015-01-22 | 11.35
2015-01-23 | 11.86
2015-01-24 | 12.01
2015-01-25 | 11.98
2015-01-26 | 12.34
2015-01-27 | 12.49
2015-01-28 | 12.49
2015-01-29 | 12.85
2015-01-30 | 12.63
2015-01-31 | 12.20
2015-02-01 | 11.57
2015-02-02 | 11.27
2015-02-03 | 11.91
2015-02-04 | 11.48
2015-02-05 | 11.62
2015-02-06 | 11.13
2015-02-07 | 10.92
2015-02-08 | 11.25
2015-02-09 | 11.01
2015-02-10 | 11.28
2015-02-11 | 10.85
2015-02-12 | 10.83
2015-02-13 | 10.53
2015-02-14 | 10.32
2015-02-15 | 10.46
2015-02-16 | 10.15
2015-02-17 | 9.20
2015-02-18 | 9.24
2015-02-19 | 8.95
2015-02-20 | 8.65
2015-02-21 | 8.32
2015-02-22 | 8.05
2015-02-23 | 8.23
2015-02-24 | 8.14
2015-02-25 | 8.43
2015-02-26 | 8.14
2015-02-27 | 8.27
2015-02-28 | 7.93
2015-03-01 | 8.31
2015-03-02 | 8.84
2015-03-03 | 9.45
2015-03-04 | 9.54
2015-03-05 | 9.55
2015-03-06 | 9.80
2015-03-07 | 10.19
2015-03-08 | 9.86
2015-03-09 | 9.50
2015-03-10 | 9.25
2015-03-11 | 8.82
2015-03-12 | 9.11
2015-03-13 | 9.86
2015-03-14 | 9.98
2015-03-15 | 9.73
2015-03-16 | 9.94
2015-03-17 | 9.43
2015-03-18 | 9.42
2015-03-19 | 9.16
2015-03-20 | 9.19
2015-03-21 | 8.58
2015-03-22 | 9.40
2015-03-23 | 9.82
2015-03-24 | 10.26
2015-03-25 | 10.37
2015-03-26 | 10.47
2015-03-27 | 9.88
2015-03-28 | 10.87
2015-03-29 | 11.47
2015-03-30 | 11.14
2015-03-31 | 11.44
2015-04-01 | 11.36
2015-04-02 | 11.89
2015-04-03 | 12.41
2015-04-04 | 12.58
2015-04-05 | 11.67
2015-04-06 | 11.23
2015-04-07 | 10.64
2015-04-08 | 10.26
2015-04-09 | 10.35
2015-04-10 | 10.77
2015-04-11 | 10.42
2015-04-12 | 10.12
2015-04-13 | 9.54
2015-04-14 | 9.27
2015-04-15 | 9.07
2015-04-16 | 9.42
2015-04-17 | 9.26
2015-04-18 | 9.31
2015-04-19 | 9.70
2015-04-20 | 9.74
2015-04-21 | 9.55
2015-04-22 | 9.46
2015-04-23 | 9.19
2015-04-24 | 8.91
2015-04-25 | 8.27
2015-04-26 | 8.39
2015-04-27 | 8.94
2015-04-28 | 8.64
2015-04-29 | 8.81
2015-04-30 | 8.32
2015-05-01 | 8.02
2015-05-02 | 8.66
2015-05-03 | 8.92
2015-05-04 | 9.20
2015-05-05 | 9.25
2015-05-06 | 9.24
2015-05-07 | 9.42
2015-05-08 | 9.48
2015-05-09 | 9.53
2015-05-10 | 9.21
2015-05-11 | 9.12
2015-05-12 | 9.77
2015-05-13 | 9.66
2015-05-14 | 9.64
2015-05-15 | 9.88
2015-05-16 | 9.54
2015-05-17 | 8.80
2015-05-18 | 9.00
2015-05-19 | 9.48
2015-05-20 | 9.59
2015-05-21 | 9.55
2015-05-22 | 9.15
2015-05-23 | 9.81
2015-05-24 | 9.87
2015-05-25 | 10.18
2015-05-26 | 9.89
2015-05-27 | 10.03
2015-05-28 | 10.37
2015-05-29 | 10.66
2015-05-30 | 11.00
2015-05-31 | 11.42
2015-06-01 | 11.22
2015-06-02 | 11.40
2015-06-03 | 11.90
2015-06-04 | 11.89
2015-06-05 | 11.90
2015-06-06 | 11.20
2015-06-07 | 10.59
2015-06-08 | 10.23
2015-06-09 | 10.15
2015-06-10 | 9.79
2015-06-11 | 9.69
2015-06-12 | 9.37
2015-06-13 | 8.94
2015-06-14 | 8.42
2015-06-15 | 8.26
2015-06-16 | 7.97
2015-06-17 | 8.44
2015-06-18 | 8.27
2015-06-19 | 8.30
2015-06-20 | 8.95
2015-06-21 | 9.84
2015-06-22 | 9.82
2015-06-23 | 9.99
2015-06-24 | 10.27
2015-06-25 | 9.98
2015-06-26 | 9.54
2015-06-27 | 9.41
2015-06-28 | 10.11
2015-06-29 | 9.64
2015-06-30 | 9.31
2015-07-01 | 8.91
2015-07-02 | 8.90
2015-07-03 | 9.26
2015-07-04 | 9.32
2015-07-05 | 9.05
2015-07-06 | 9.12
2015-07-07 | 9.00
2015-07-08 | 8.72
2015-07-09 | 8.79
2015-07-10 | 9.21
2015-07-11 | 9.52
2015-07-12 | 9.00
2015-07-13 | 9.38
2015-07-14 | 8.98
2015-07-15 | 8.81
2015-07-16 | 9.07
2015-07-17 | 9.02
2015-07-18 | 8.83
2015-07-19 | 8.82
2015-07-20 | 8.87
2015-07-21 | 9.26
2015-07-22 | 9.09
2015-07-23 | 9.34
2015-07-24 | 10.00
2015-07-25 | 10.02
2015-07-26 | 10.04
2015-07-27 | 10.21
2015-07-28 | 10.96
2015-07-29 | 10.97
2015-07-30 | 10.80
2015-07-31 | 10.83
2015-08-01 | 10.71
2015-08-02 | 10.58
2015-08-03 | 10.58
2015-08-04 | 10.66
2015-08-05 | 11.19
2015-08-06 | 11.29
2015-08-07 | 10.94
2015-08-08 | 10.63
2015-08-09 | 11.03
2015-08-10 | 11.40
2015-08-11 | 11.45
2015-08-12 | 11.27
2015-08-13 | 11.14
2015-08-14 | 11.25
2015-08-15 | 11.06
2015-08-16 | 11.03
2015-08-17 | 11.04
2015-08-18 | 11.02
2015-08-19 | 11.46
2015-08-20 | 11.28
2015-08-21 | 10.80
2015-08-22 | 10.83
2015-08-23 | 10.73
2015-08-24 | 10.47
2015-08-25 | 10.08
2015-08-26 | 9.98
2015-08-27 | 10.54
2015-08-28 | 9.99
2015-08-29 | 10.57
2015-08-30 | 10.55
2015-08-31 | 10.26
2015-09-01 | 10.48
2015-09-02 | 9.88
2015-09-03 | 9.79
2015-09-04 | 9.82
2015-09-05 | 9.97
2015-09-06 | 9.56
2015-09-07 | 10.08
2015-09-08 | 10.49
2015-09-09 | 10.88
2015-09-10 | 10.72
2015-09-11 | 11.03
2015-09-12 | 10.82
2015-09-13 | 11.52
2015-09-14 | 11.92
2015-09-15 | 11.69
2015-09-16 | 11.68
2015-09-17 | 11.88
2015-09-18 | 11.61
2015-09-19 | 11.56
2015-09-20 | 12.55
2015-09-21 | 11.51
2015-09-22 | 11.69
2015-09-23 | 11.27
2015-09-24 | 10.66
2015-09-25 | 10.62
2015-09-26 | 10.11
2015-09-27 | 9.80
2015-09-28 | 9.64
2015-09-29 | 9.58
2015-09-30 | 9.47
2015-10-01 | 9.13
2015-10-02 | 9.51
2015-10-03 | 10.13
2015-10-04 | 9.69
2015-10-05 | 10.40
2015-10-06 | 10.31
2015-10-07 | 10.18
2015-10-08 | 10.18
2015-10-09 | 10.56
2015-10-10 | 10.88
2015-10-11 | 10.97
2015-10-12 | 11.15
2015-10-13 | 10.86
2015-10-14 | 10.80
2015-10-15 | 11.33
2015-10-16 | 11.06
2015-10-17 | 10.48
2015-10-18 | 10.37
2015-10-19 | 9.87
2015-10-20 | 9.80
2015-10-21 | 9.97
2015-10-22 | 10.48
2015-10-23 | 9.94
2015-10-24 | 10.23
2015-10-25 | 9.93
2015-10-26 | 9.44
2015-10-27 | 10.22
2015-10-28 | 11.13
2015-10-29 | 10.88
2015-10-30 | 11.19
2015-10-31 | 11.36
2015-11-01 | 11.43
2015-11-02 | 11.23
2015-11-03 | 10.58
2015-11-04 | 10.86
2015-11-05 | 11.26
2015-11-06 | 11.40
2015-11-07 | 10.90
2015-11-08 | 11.37
2015-11-09 | 11.65
2015-11-10 | 10.87
2015-11-11 | 10.30
2015-11-12 | 10.33
2015-11-13 | 9.85
2015-11-14 | 9.99
2015-11-15 | 10.10
2015-11-16 | 10.19
2015-11-17 | 10.38
2015-11-18 | 10.58
2015-11-19 | 10.00
2015-11-20 | 10.45
2015-11-21 | 10.68
2015-11-22 | 10.03
2015-11-23 | 9.92
2015-11-24 | 9.98
2015-11-25 | 9.92
2015-11-26 | 9.55
2015-11-27 | 9.90
2015-11-28 | 9.36
2015-11-29 | 9.38
2015-11-30 | 9.43
2015-12-01 | 9.65
2015-12-02 | 8.79
2015-12-03 | 8.95
2015-12-04 | 8.21
2015-12-05 | 8.32
2015-12-06 | 8.58
2015-12-07 | 8.46
2015-12-08 | 8.33
2015-12-09 | 8.26
2015-12-10 | 8.68
2015-12-11 | 8.64
2015-12-12 | 8.77
2015-12-13 | 8.49
2015-12-14 | 9.21
2015-12-15 | 9.45
2015-12-16 | 10.24
2015-12-17 | 10.24
2015-12-18 | 10.54
2015-12-19 | 10.50
2015-12-20 | 10.61
2015-12-21 | 11.10
2015-12-22 | 11.46
2015-12-23 | 10.96
2015-12-24 | 10.93
2015-12-25 | 11.24
2015-12-26 | 11.04
2015-12-27 | 10.87
2015-12-28 | 10.35
2015-12-29 | 9.57
2015-12-30 | 9.41
2015-12-31 | 9.23
2016-01-01 | 9.27
2016-01-02 | 9.18
2016-01-03 | 8.82
2016-01-04 | 8.37
2016-01-05 | 8.73
2016-01-06 | 9.28
2016-01-07 | 9.57
2016-01-08 | 9.35
2016-01-09 | 10.06
2016-01-10 | 10.35
2016-01-11 | 10.39
2016-01-12 | 10.59
2016-01-13 | 10.66
2016-01-14 | 10.62
2016-01-15 | 10.97
2016-01-16 | 10.70
2016-01-17 | 10.39
2016-01-18 | 10.40
2016-01-19 | 9.84
2016-01-20 | 9.88
2016-01-21 | 9.75
2016-01-22 | 9.60
2016-01-23 | 9.16
2016-01-24 | 9.15
2016-01-25 | 9.46
2016-01-26 | 9.57
2016-01-27 | 9.09
2016-01-28 | 8.98
2016-01-29 | 8.77
2016-01-30 | 8.95
2016-01-31 | 9.14
2016-02-01 | 8.80
2016-02-02 | 9.37
2016-02-03 | 9.46
2016-02-04 | 9.09
2016-02-05 | 9.31
2016-02-06 | 9.33
2016-02-07 | 9.23
2016-02-08 | 9.00
2016-02-09 | 9.30
2016-02-10 | 9.73
2016-02-11 | 9.92
2016-02-12 | 9.94
2016-02-13 | 10.25
2016-02-14 | 10.59
2016-02-15 | 10.97
2016-02-16 | 10.72
2016-02-17 | 11.07
2016-02-18 | 11.29
2016-02-19 | 11.39
2016-02-20 | 11.01
2016-02-21 | 10.94
2016-02-22 | 10.56
2016-02-23 | 10.24
2016-02-24 | 10.30
2016-02-25 | 9.84
2016-02-26 | 9.82
2016-02-27 | 9.49
2016-02-28 | 9.75
2016-02-29 | 9.53
2016-03-01 | 8.87
2016-03-02 | 8.25
2016-03-03 | 8.52
2016-03-04 | 8.21
2016-03-05 | 8.44
2016-03-06 | 8.75
2016-03-07 | 8.43
2016-03-08 | 9.04
2016-03-09 | 8.94
2016-03-10 | 9.06
2016-03-11 | 8.53
2016-03-12 | 8.23
2016-03-13 | 7.49
2016-03-14 | 8.17
2016-03-15 | 8.52
2016-03-16 | 8.63
2016-03-17 | 8.20
2016-03-18 | 8.57
2016-03-19 | 9.12
2016-03-20 | 8.68
2016-03-21 | 9.38
2016-03-22 | 8.76
2016-03-23 | 8.83
2016-03-24 | 9.18
2016-03-25 | 9.66
2016-03-26 | 9.86
2016-03-27 | 10.54
2016-03-28 | 9.83
2016-03-29 | 10.23
2016-03-30 | 10.78
2016-03-31 | 10.52
2016-04-01 | 10.27
2016-04-02 | 9.81
2016-04-03 | 9.57
2016-04-04 | 9.15
2016-04-05 | 9.83
2016-04-06 | 9.79
2016-04-07 | 9.73
2016-04-08 | 9.29
2016-04-09 | 9.97
2016-04-10 | 9.67
2016-04-11 | 10.46
2016-04-12 | 9.85
2016-04-13 | 9.38
2016-04-14 | 9.95
2016-04-15 | 10.05
2016-04-16 | 10.35
2016-04-17 | 10.63
2016-04-18 | 11.29
2016-04-19 | 10.77
2016-04-20 | 10.71
2016-04-21 | 10.66
2016-04-22 | 11.25
2016-04-23 | 11.31
2016-04-24 | 11.12
2016-04-25 | 10.34
2016-04-26 | 11.06
2016-04-27 | 10.71
2016-04-28 | 10.61
2016-04-29 | 10.15
2016-04-30 | 10.22
2016-05-01 | 9.88
2016-05-02 | 9.61
2016-05-03 | 10.25
2016-05-04 | 10.07
2016-05-05 | 10.30
2016-05-06 | 10.66
2016-05-07 | 10.44
2016-05-08 | 11.18
2016-05-09 | 11.43
2016-05-10 | 10.95
2016-05-11 | 10.66
2016-05-12 | 10.12
2016-05-13 | 10.10
2016-05-14 | 9.82
2016-05-15 | 10.37
2016-05-16 | 9.89
2016-05-17 | 9.31
2016-05-18 | 9.89
2016-05-19 | 9.85
2016-05-20 | 9.08
2016-05-21 | 9.12
2016-05-22 | 8.15
2016-05-23 | 8.29
2016-05-24 | 8.75
2016-05-25 | 8.84
2016-05-26 | 9.01
2016-05-27 | 9.94
2016-05-28 | 9.78
2016-05-29 | 10.12
2016-05-30 | 10.19
2016-05-31 | 10.06
2016-06-01 | 9.22
2016-06-02 | 8.80
2016-06-03 | 8.77
2016-06-04 | 8.89
2016-06-05 | 9.02
2016-06-06 | 9.24
2016-06-07 | 8.50
2016-06-08 | 9.28
2016-06-09 | 9.87
2016-06-10 | 9.89
2016-06-11 | 10.22
2016-06-12 | 10.12
2016-06-13 | 11.07
2016-06-14 | 11.27
2016-06-15 | 11.70
2016-06-16 | 11.78
2016-06-17 | 12.28
2016-06-18 | 12.03
2016-06-19 | 12.27
2016-06-20 | 12.02
2016-06-21 | 12.31
2016-06-22 | 11.99
2016-06-23 | 11.74
2016-06-24 | 11.10
2016-06-25 | 11.43
2016-06-26 | 11.47
2016-06-27 | 10.81
2016-06-28 | 10.65
2016-06-29 | 10.16
2016-06-30 | 10.46
2016-07-01 | 10.46
2016-07-02 | 10.55
2016-07-03 | 11.03
2016-07-04 | 11.06
2016-07-05 | 11.23
2016-07-06 | 10.81
2016-07-07 | 10.49
2016-07-08 | 10.37
2016-07-09 | 9.68
2016-07-10 | 9.73
2016-07-11 | 9.54
2016-07-12 | 9.87
2016-07-13 | 10.46
2016-07-14 | 10.41
2016-07-15 | 9.52
2016-07-16 | 9.38
2016-07-17 | 8.50
2016-07-18 | 8.05
2016-07-19 | 7.47
2016-07-20 | 7.90
2016-07-21 | 7.62
2016-07-22 | 7.86
2016-07-23 | 8.30
2016-07-24 | 7.64
2016-07-25 | 8.08
2016-07-26 | 8.16
2016-07-27 | 8.16
2016-07-28 | 8.46
2016-07-29 | 8.92
2016-07-30 | 8.34
2016-07-31 | 8.61
2016-08-01 | 8.85
2016-08-02 | 9.72
2016-08-03 | 10.38
2016-08-04 | 10.72
2016-08-05 | 10.48
2016-08-06 | 10.03
2016-08-07 | 10.57
2016-08-08 | 10.69
2016-08-09 | 10.53
2016-08-10 | 10.61
2016-08-11 | 10.37
2016-08-12 | 10.65
2016-08-13 | 11.07
2016-08-14 | 11.75
2016-08-15 | 11.73
2016-08-16 | 11.71
2016-08-17 | 11.00
2016-08-18 | 11.40
2016-08-19 | 11.56
2016-08-20 | 12.03
2016-08-21 | 11.78
2016-08-22 | 11.74
2016-08-23 | 11.84
2016-08-24 | 11.61
2016-08-25 | 11.05
2016-08-26 | 10.60
2016-08-27 | 10.38
2016-08-28 | 10.05
2016-08-29 | 10.43
2016-08-30 | 10.33
2016-08-31 | 10.24
2016-09-01 | 9.65
2016-09-02 | 10.04
2016-09-03 | 9.88
2016-09-04 | 9.61
2016-09-05 | 9.44
2016-09-06 | 9.28
2016-09-07 | 9.00
2016-09-08 | 9.00
2016-09-09 | 9.76
2016-09-10 | 9.61
2016-09-11 | 9.02
2016-09-12 | 8.48
2016-09-13 | 7.97
2016-09-14 | 7.99
2016-09-15 | 8.67
2016-09-16 | 7.79
2016-09-17 | 8.09
2016-09-18 | 8.24
2016-09-19 | 8.15
2016-09-20 | 8.19
2016-09-21 | 8.37
2016-09-22 | 9.33
2016-09-23 | 9.20
2016-09-24 | 9.67
2016-09-25 | 10.28
2016-09-26 | 11.17
2016-09-27 | 11.86
2016-09-28 | 12.15
2016-09-29 | 11.82
2016-09-30 | 12.24
2016-10-01 | 12.27
2016-10-02 | 12.42
2016-10-03 | 12.80
2016-10-04 | 12.53
2016-10-05 | 12.80
2016-10-06 | 12.23
2016-10-07 | 12.21
2016-10-08 | 11.97
2016-10-09 | 11.92
2016-10-10 | 11.52
2016-10-11 | 10.81
2016-10-12 | 10.72
2016-10-13 | 10.37
2016-10-14 | 10.32
2016-10-15 | 9.90
2016-10-16 | 10.02
2016-10-17 | 9.73
2016-10-18 | 10.24
2016-10-19 | 10.21
2016-10-20 | 9.79
2016-10-21 | 9.38
2016-10-22 | 9.34
2016-10-23 | 9.07
2016-10-24 | 8.73
2016-10-25 | 8.63
2016-10-26 | 8.47
2016-10-27 | 9.24
2016-10-28 | 9.50
2016-10-29 | 9.33
2016-10-30 | 9.73
2016-10-31 | 9.89
2016-11-01 | 9.88
2016-11-02 | 9.91
2016-11-03 | 10.37
2016-11-04 | 10.78
2016-11-05 | 11.16
2016-11-06 | 11.75
2016-11-07 | 12.35
2016-11-08 | 12.56
2016-11-09 | 12.34
2016-11-10 | 11.85
2016-11-11 | 11.81
2016-11-12 | 12.01
2016-11-13 | 11.17
2016-11-14 | 11.16
2016-11-15 | 10.42
2016-11-16 | 10.91
2016-11-17 | 10.71
2016-11-18 | 10.52
2016-11-19 | 10.65
2016-11-20 | 10.06
2016-11-21 | 9.70
2016-11-22 | 9.63
2016-11-23 | 9.73
2016-11-24 | 9.97
2016-11-25 | 9.55
2016-11-26 | 9.69
2016-11-27 | 9.93
2016-11-28 | 9.85
2016-11-29 | 10.09
2016-11-30 | 9.54
2016-12-01 | 9.61
2016-12-02 | 9.34
2016-12-03 | 8.81
2016-12-04 | 8.83
2016-12-05 | 8.36
2016-12-06 | 8.40
2016-12-07 | 8.22
2016-12-08 | 8.06
2016-12-09 | 8.31
2016-12-10 | 8.55
2016-12-11 | 8.50
2016-12-12 | 8.06
2016-12-13 | 8.02
2016-12-14 | 8.04
2016-12-15 | 8.27
2016-12-16 | 8.13
2016-12-17 | 8.83
2016-12-18 | 8.93
2016-12-19 | 9.28
2016-12-20 | 9.56
2016-12-21 | 9.95
2016-12-22 | 10.23
2016-12-23 | 10.23
2016-12-24 | 9.96
2016-12-25 | 9.69
2016-12-26 | 10.31
2016-12-27 | 11.05
2016-12-28 | 10.73
2016-12-29 | 10.14
2016-12-30 | 10.52
2016-12-31 | 10.59
2017-01-01 | 10.72
2017-01-02 | 10.84
2017-01-03 | 10.61
2017-01-04 | 10.19
2017-01-05 | 9.61
2017-01-06 | 9.82
2017-01-07 | 9.85
2017-01-08 | 10.18
2017-01-09 | 9.87
2017-01-10 | 9.16
2017-01-11 | 9.17
2017-01-12 | 9.97
2017-01-13 | 10.01
2017-01-14 | 9.58
2017-01-15 | 9.49
2017-01-16 | 8.91
2017-01-17 | 8.90
2017-01-18 | 9.85
2017-01-19 | 10.64
2017-01-20 | 11.07
2017-01-21 | 10.70
2017-01-22 | 10.85
2017-01-23 | 10.72
2017-01-24 | 10.64
2017-01-25 | 10.65
2017-01-26 | 9.86
2017-01-27 | 9.78
2017-01-28 | 9.80
2017-01-29 | 10.01
2017-01-30 | 10.44
2017-01-31 | 10.51
2017-02-01 | 10.23
2017-02-02 | 9.70
2017-02-03 | 9.52
2017-02-04 | 9.86
2017-02-05 | 9.64
2017-02-06 | 9.52
2017-02-07 | 9.98
2017-02-08 | 9.93
2017-02-09 | 9.97
2017-02-10 | 9.90
2017-02-11 | 9.80
2017-02-12 | 9.48
2017-02-13 | 9.55
2017-02-14 | 9.89
2017-02-15 | 9.73
2017-02-16 | 9.97
2017-02-17 | 9.85
2017-02-18 | 9.64
2017-02-19 | 9.89
2017-02-20 | 10.22
2017-02-21 | 10.38
2017-02-22 | 11.26
2017-02-23 | 11.31
2017-02-24 | 10.83
2017-02-25 | 11.40
2017-02-26 | 11.25
2017-02-27 | 11.60
2017-02-28 | 11.41
2017-03-01 | 10.93
2017-03-02 | 10.51
2017-03-03 | 9.83
2017-03-04 | 9.65
2017-03-05 | 9.30
2017-03-06 | 9.55
2017-03-07 | 9.43
2017-03-08 | 8.97
2017-03-09 | 9.68
2017-03-10 | 10.26
2017-03-11 | 9.68
2017-03-12 | 9.91
2017-03-13 | 9.12
2017-03-14 | 8.61
2017-03-15 | 8.81
2017-03-16 | 9.04
2017-03-17 | 10.01
2017-03-18 | 10.32
2017-03-19 | 11.14
2017-03-20 | 11.06
2017-03-21 | 11.36
2017-03-22 | 11.84
2017-03-23 | 11.27
2017-03-24 | 11.57
2017-03-25 | 11.40
2017-03-26 | 11.70
2017-03-27 | 12.60
2017-03-28 | 13.55
2017-03-29 | 13.53
2017-03-30 | 13.79
2017-03-31 | 13.06
2017-04-01 | 12.52
2017-04-02 | 12.34
2017-04-03 | 12.04
2017-04-04 | 12.06
2017-04-05 | 11.23
2017-04-06 | 11.71
2017-04-07 | 11.44
2017-04-08 | 11.73
2017-04-09 | 11.45
2017-04-10 | 11.65
2017-04-11 | 10.94
2017-04-12 | 11.66
2017-04-13 | 10.99
2017-04-14 | 10.86
2017-04-15 | 11.24
2017-04-16 | 11.03
2017-04-17 | 11.06
2017-04-18 | 10.86
2017-04-19 | 11.25
2017-04-20 | 10.55
2017-04-21 | 10.80
2017-04-22 | 10.16
2017-04-23 | 10.16
2017-04-24 | 9.70
2017-04-25 | 9.92
2017-04-26 | 9.49
2017-04-27 | 9.49
2017-04-28 | 10.08
2017-04-29 | 10.07
2017-04-30 | 9.89
2017-05-01 | 9.56
2017-05-02 | 9.61
2017-05-03 | 9.89
2017-05-04 | 10.65
2017-05-05 | 10.38
2017-05-06 | 10.79
2017-05-07 | 10.76
2017-05-08 | 10.55
2017-05-09 | 10.69
2017-05-10 | 10.43
2017-05-11 | 10.25
2017-05-12 | 10.16
2017-05-13 | 10.26
2017-05-14 | 9.91
2017-05-15 | 10.63
2017-05-16 | 10.03
2017-05-17 | 9.03
2017-05-18 | 8.41
2017-05-19 | 8.49
2017-05-20 | 8.47
2017-05-21 | 8.83
2017-05-22 | 8.79
2017-05-23 | 8.73
2017-05-24 | 9.24
2017-05-25 | 9.20
2017-05-26 | 9.53
2017-05-27 | 9.60
2017-05-28 | 10.03
2017-05-29 | 9.27
2017-05-30 | 9.97
2017-05-31 | 10.49
2017-06-01 | 10.83
2017-06-02 | 10.31
2017-06-03 | 10.38
2017-06-04 | 10.26
2017-06-05 | 10.40
2017-06-06 | 10.40
2017-06-07 | 10.37
2017-06-08 | 11.05
2017-06-09 | 10.84
2017-06-10 | 10.58
2017-06-11 | 10.51
2017-06-12 | 10.84
2017-06-13 | 10.38
2017-06-14 | 10.29
2017-06-15 | 10.14
2017-06-16 | 10.68
2017-06-17 | 11.05
2017-06-18 | 11.49
2017-06-19 | 11.40
2017-06-20 | 11.11
2017-06-21 | 10.45
2017-06-22 | 10.03
2017-06-23 | 9.68
2017-06-24 | 10.11
2017-06-25 | 10.13
2017-06-26 | 9.62
2017-06-27 | 9.33
2017-06-28 | 9.37
2017-06-29 | 9.86
2017-06-30 | 9.60
2017-07-01 | 9.88
2017-07-02 | 9.43
2017-07-03 | 9.37
2017-07-04 | 9.65
2017-07-05 | 9.72
2017-07-06 | 9.92
2017-07-07 | 10.34
2017-07-08 | 10.20
2017-07-09 | 10.21
2017-07-10 | 10.47
2017-07-11 | 10.91
2017-07-12 | 10.67
2017-07-13 | 9.90
2017-07-14 | 9.63
2017-07-15 | 8.96
2017-07-16 | 8.72
2017-07-17 | 8.60
2017-07-18 | 8.30
2017-07-19 | 8.70
2017-07-20 | 9.26
2017-07-21 | 8.83
2017-07-22 | 9.32
2017-07-23 | 9.54
2017-07-24 | 10.11
2017-07-25 | 9.99
2017-07-26 | 10.28
2017-07-27 | 10.62
2017-07-28 | 10.90
2017-07-29 | 10.72
2017-07-30 | 10.96
2017-07-31 | 11.57
2017-08-01 | 11.93
2017-08-02 | 11.85
2017-08-03 | 11.39
2017-08-04 | 11.86
2017-08-05 | 11.31
2017-08-06 | 11.06
2017-08-07 | 11.08
2017-08-08 | 11.45
2017-08-09 | 11.82
2017-08-10 | 12.24
2017-08-11 | 11.88
2017-08-12 | 11.74
2017-08-13 | 11.69
2017-08-14 | 11.14
2017-08-15 | 10.64
2017-08-16 | 10.24
2017-08-17 | 10.46
2017-08-18 | 10.47
2017-08-19 | 10.60
2017-08-20 | 10.88
2017-08-21 | 10.35
2017-08-22 | 9.70
2017-08-23 | 9.04
2017-08-24 | 8.60
2017-08-25 | 8.51
2017-08-26 | 8.88
2017-08-27 | 9.05
2017-08-28 | 9.38
2017-08-29 | 9.85
2017-08-30 | 10.14
2017-08-31 | 10.26
2017-09-01 | 9.68
2017-09-02 | 9.83
2017-09-03 | 9.46
2017-09-04 | 9.16
2017-09-05 | 9.66
2017-09-06 | 10.04
2017-09-07 | 9.83
2017-09-08 | 10.10
2017-09-09 | 10.47
2017-09-10 | 10.66
2017-09-11 | 10.70
2017-09-12 | 10.79
2017-09-13 | 11.41
2017-09-14 | 10.84
2017-09-15 | 10.83
2017-09-16 | 10.61
2017-09-17 | 11.07
2017-09-18 | 11.75
2017-09-19 | 11.80
2017-09-20 | 11.96
2017-09-21 | 11.87
2017-09-22 | 12.64
2017-09-23 | 12.03
2017-09-24 | 11.54
2017-09-25 | 10.86
2017-09-26 | 10.42
2017-09-27 | 10.23
2017-09-28 | 10.50
2017-09-29 | 10.58
2017-09-30 | 10.25
2017-10-01 | 9.83
2017-10-02 | 9.92
2017-10-03 | 10.05
2017-10-04 | 9.65
2017-10-05 | 10.09
2017-10-06 | 10.18
2017-10-07 | 10.42
2017-10-08 | 10.51
2017-10-09 | 10.74
2017-10-10 | 11.35
2017-10-11 | 11.07
2017-10-12 | 10.72
2017-10-13 | 10.69
2017-10-14 | 10.92
2017-10-15 | 11.37
2017-10-16 | 11.19
2017-10-17 | 10.69
2017-10-18 | 11.30
2017-10-19 | 11.17
2017-10-20 | 10.42
2017-10-21 | 10.81
2017-10-22 | 11.32
2017-10-23 | 11.18
2017-10-24 | 10.70
2017-10-25 | 11.10
2017-10-26 | 11.34
2017-10-27 | 11.66
2017-10-28 | 11.66
2017-10-29 | 10.82
2017-10-30 | 11.26
2017-10-31 | 11.75
2017-11-01 | 11.91
2017-11-02 | 12.30
2017-11-03 | 12.54
2017-11-04 | 11.58
2017-11-05 | 11.20
2017-11-06 | 11.73
2017-11-07 | 11.43
2017-11-08 | 10.96
2017-11-09 | 11.29
2017-11-10 | 11.17
2017-11-11 | 11.24
2017-11-12 | 12.31
2017-11-13 | 11.62
2017-11-14 | 11.52
2017-11-15 | 11.08
2017-11-16 | 10.74
2017-11-17 | 10.75
2017-11-18 | 11.47
2017-11-19 | 11.07
2017-11-20 | 10.73
2017-11-21 | 10.99
2017-11-22 | 11.26
2017-11-23 | 10.79
2017-11-24 | 10.89
2017-11-25 | 10.33
2017-11-26 | 9.34
2017-11-27 | 9.65
2017-11-28 | 9.31
2017-11-29 | 8.76
2017-11-30 | 8.82
2017-12-01 | 8.94
2017-12-02 | 9.20
2017-12-03 | 9.03
2017-12-04 | 8.61
2017-12-05 | 8.79
2017-12-06 | 8.51
2017-12-07 | 8.81
2017-12-08 | 8.66
2017-12-09 | 9.35
2017-12-10 | 9.99
2017-12-11 | 9.86
2017-12-12 | 10.18
2017-12-13 | 10.33
2017-12-14 | 10.65
2017-12-15 | 10.59
2017-12-16 | 9.94
2017-12-17 | 10.72
2017-12-18 | 11.13
2017-12-19 | 10.99
2017-12-20 | 10.79
2017-12-21 | 10.97
2017-12-22 | 11.16
2017-12-23 | 10.45
2017-12-24 | 10.13
2017-12-25 | 9.92
2017-12-26 | 9.46
2017-12-27 | 9.56
2017-12-28 | 8.96
2017-12-29 | 9.08
2017-12-30 | 9.05
2017-12-31 | 8.84
2018-01-01 | 9.13
2018-01-02 | 9.45
2018-01-03 | 9.22
2018-01-04 | 9.05
2018-01-05 | 8.95
2018-01-06 | 9.16
2018-01-07 | 9.09
2018-01-08 | 9.23
2018-01-09 | 9.45
2018-01-10 | 9.45
2018-01-11 | 10.07
2018-01-12 | 9.64
2018-01-13 | 10.17
2018-01-14 | 10.17
2018-01-15 | 9.88
2018-01-16 | 9.62
2018-01-17 | 10.21
2018-01-18 | 10.55
2018-01-19 | 10.20
2018-01-20 | 10.67
2018-01-21 | 10.81
2018-01-22 | 10.89
2018-01-23 | 10.94
2018-01-24 | 10.80
2018-01-25 | 10.48
2018-01-26 | 10.70
2018-01-27 | 10.34
2018-01-28 | 10.01
2018-01-29 | 10.47
2018-01-30 | 10.13
2018-01-31 | 9.38
2018-02-01 | 9.26
2018-02-02 | 9.55
2018-02-03 | 9.08
2018-02-04 | 8.80
2018-02-05 | 8.71
2018-02-06 | 8.64
2018-02-07 | 8.80
2018-02-08 | 8.77
2018-02-09 | 9.03
2018-02-10 | 8.66
2018-02-11 | 8.61
2018-02-12 | 8.53
2018-02-13 | 8.92
2018-02-14 | 9.03
2018-02-15 | 8.81
2018-02-16 | 9.33
2018-02-17 | 9.70
2018-02-18 | 9.81
2018-02-19 | 9.93
2018-02-20 | 10.36
2018-02-21 | 10.39
2018-02-22 | 10.76
2018-02-23 | 10.00
2018-02-24 | 10.49
2018-02-25 | 10.98
2018-02-26 | 11.02
2018-02-27 | 11.03
2018-02-28 | 11.64
2018-03-01 | 11.79
2018-03-02 | 11.05
2018-03-03 | 10.90
2018-03-04 | 10.97
2018-03-05 | 11.27
2018-03-06 | 11.00
2018-03-07 | 11.23
2018-03-08 | 10.92
2018-03-09 | 11.66
2018-03-10 | 11.85
2018-03-11 | 11.95
2018-03-12 | 11.91
2018-03-13 | 11.79
2018-03-14 | 11.47
2018-03-15 | 11.03
2018-03-16 | 11.55
2018-03-17 | 12.21
2018-03-18 | 12.93
2018-03-19 | 12.61
2018-03-20 | 12.67
2018-03-21 | 12.06
2018-03-22 | 11.53
2018-03-23 | 11.09
2018-03-24 | 10.69
2018-03-25 | 10.24
2018-03-26 | 10.19
2018-03-27 | 10.27
2018-03-28 | 10.69
2018-03-29 | 10.83
2018-03-30 | 10.65
2018-03-31 | 10.00
2018-04-01 | 9.93
2018-04-02 | 9.85
2018-04-03 | 9.77
2018-04-04 | 10.44
2018-04-05 | 11.21
2018-04-06 | 11.49
2018-04-07 | 11.48
2018-04-08 | 11.67
2018-04-09 | 11.22
2018-04-10 | 11.55
2018-04-11 | 11.09
2018-04-12 | 10.77
2018-04-13 | 10.94
2018-04-14 | 11.06
2018-04-15 | 10.20
2018-04-16 | 10.29
2018-04-17 | 10.07
2018-04-18 | 9.76
2018-04-19 | 9.15
2018-04-20 | 9.45
2018-04-21 | 9.84
2018-04-22 | 9.38
2018-04-23 | 9.69
2018-04-24 | 9.48
2018-04-25 | 9.83
2018-04-26 | 10.13
2018-04-27 | 9.50
2018-04-28 | 9.62
2018-04-29 | 10.29
2018-04-30 | 10.00
2018-05-01 | 10.61
2018-05-02 | 11.22
2018-05-03 | 11.30
2018-05-04 | 11.39
2018-05-05 | 10.95
2018-05-06 | 11.76
2018-05-07 | 11.78
2018-05-08 | 11.81
2018-05-09 | 11.85
2018-05-10 | 11.89
2018-05-11 | 11.90
2018-05-12 | 11.76
2018-05-13 | 11.30
2018-05-14 | 11.44
2018-05-15 | 11.03
2018-05-16 | 10.63
2018-05-17 | 10.86
2018-05-18 | 9.87
2018-05-19 | 10.18
2018-05-20 | 9.57
2018-05-21 | 9.73
2018-05-22 | 9.75
2018-05-23 | 9.47
2018-05-24 | 9.53
2018-05-25 | 10.03
2018-05-26 | 9.90
2018-05-27 | 10.12
2018-05-28 | 10.59
2018-05-29 | 10.17
2018-05-30 | 10.06
2018-05-31 | 10.46
2018-06-01 | 10.92
2018-06-02 | 11.27
2018-06-03 | 10.99
2018-06-04 | 10.73
2018-06-05 | 10.33
2018-06-06 | 10.58
2018-06-07 | 10.34
2018-06-08 | 10.50
2018-06-09 | 10.95
2018-06-10 | 10.47
2018-06-11 | 10.51
2018-06-12 | 10.45
2018-06-13 | 10.37
2018-06-14 | 9.42
2018-06-15 | 9.01
2018-06-16 | 8.67
2018-06-17 | 9.24
2018-06-18 | 9.38
2018-06-19 | 9.99
2018-06-20 | 9.34
2018-06-21 | 9.55
2018-06-22 | 9.14
2018-06-23 | 8.74
2018-06-24 | 8.69
2018-06-25 | 7.81
2018-06-26 | 8.39
2018-06-27 | 8.47
2018-06-28 | 8.90
2018-06-29 | 9.61
2018-06-30 | 9.32
2018-07-01 | 9.35
2018-07-02 | 9.35
2018-07-03 | 8.97
2018-07-04 | 9.69
2018-07-05 | 9.62
2018-07-06 | 9.48
2018-07-07 | 9.33
2018-07-08 | 9.41
2018-07-09 | 9.73
2018-07-10 | 8.99
2018-07-11 | 8.95
2018-07-12 | 8.60
2018-07-13 | 8.53
2018-07-14 | 8.22
2018-07-15 | 8.01
2018-07-16 | 8.34
2018-07-17 | 8.42
2018-07-18 | 8.36
2018-07-19 | 8.48
2018-07-20 | 8.20
2018-07-21 | 8.52
2018-07-22 | 8.81
2018-07-23 | 9.10
2018-07-24 | 10.14
2018-07-25 | 9.96
2018-07-26 | 10.80
2018-07-27 | 11.14
2018-07-28 | 12.08
2018-07-29 | 12.71
2018-07-30 | 12.21
2018-07-31 | 11.77
2018-08-01 | 11.74
2018-08-02 | 11.39
2018-08-03 | 11.58
2018-08-04 | 11.38
2018-08-05 | 11.61
2018-08-06 | 11.63
2018-08-07 | 11.06
2018-08-08 | 11.83
2018-08-09 | 11.22
2018-08-10 | 10.79
2018-08-11 | 10.05
2018-08-12 | 9.29
2018-08-13 | 9.07
2018-08-14 | 9.48
2018-08-15 | 9.28
2018-08-16 | 9.06
2018-08-17 | 9.99
2018-08-18 | 9.60
2018-08-19 | 9.22
2018-08-20 | 8.75
2018-08-21 | 8.80
2018-08-22 | 8.21
2018-08-23 | 8.54
2018-08-24 | 8.15
2018-08-25 | 8.44
2018-08-26 | 8.83
2018-08-27 | 9.02
2018-08-28 | 9.01
2018-08-29 | 9.46
2018-08-30 | 9.40
2018-08-31 | 8.52
2018-09-01 | 9.21
2018-09-02 | 9.11
2018-09-03 | 9.21
2018-09-04 | 9.55
2018-09-05 | 9.42
2018-09-06 | 9.36
2018-09-07 | 9.65
2018-09-08 | 10.03
2018-09-09 | 9.95
2018-09-10 | 10.14
2018-09-11 | 10.14
2018-09-12 | 9.80
2018-09-13 | 9.87
2018-09-14 | 9.77
2018-09-15 | 9.76
2018-09-16 | 9.98
2018-09-17 | 10.29
2018-09-18 | 10.41
2018-09-19 | 11.05
2018-09-20 | 11.07
2018-09-21 | 11.13
2018-09-22 | 10.88
2018-09-23 | 10.60
2018-09-24 | 10.50
2018-09-25 | 10.44
2018-09-26 | 11.06
2018-09-27 | 11.21
2018-09-28 | 11.54
2018-09-29 | 11.35
2018-09-30 | 11.55
2018-10-01 | 11.13
2018-10-02 | 10.77
2018-10-03 | 10.37
2018-10-04 | 10.16
2018-10-05 | 9.96
2018-10-06 | 9.85
2018-10-07 | 10.11
2018-10-08 | 10.30
2018-10-09 | 10.85
2018-10-10 | 10.31
2018-10-11 | 10.30
2018-10-12 | 10.25
2018-10-13 | 10.38
2018-10-14 | 10.43
2018-10-15 | 10.92
2018-10-16 | 10.96
2018-10-17 | 10.88
2018-10-18 | 11.08
2018-10-19 | 11.40
2018-10-20 | 11.40
2018-10-21 | 11.08
2018-10-22 | 11.05
2018-10-23 | 10.67
2018-10-24 | 10.39
2018-10-25 | 10.29
2018-10-26 | 10.09
2018-10-27 | 9.84
2018-10-28 | 9.43
2018-10-29 | 9.17
2018-10-30 | 8.65
2018-10-31 | 8.83
2018-11-01 | 8.38
2018-11-02 | 7.97
2018-11-03 | 8.08
2018-11-04 | 8.31
2018-11-05 | 8.21
2018-11-06 | 7.90
2018-11-07 | 7.88
2018-11-08 | 8.71
2018-11-09 | 9.08
2018-11-10 | 9.35
2018-11-11 | 9.69
2018-11-12 | 9.90
2018-11-13 | 10.20
2018-11-14 | 10.17
2018-11-15 | 10.72
2018-11-16 | 10.79
2018-11-17 | 10.41
2018-11-18 | 9.88
2018-11-19 | 9.66
2018-11-20 | 10.19
2018-11-21 | 10.60
2018-11-22 | 10.32
2018-11-23 | 10.71
2018-11-24 | 10.73
2018-11-25 | 10.69
2018-11-26 | 10.47
2018-11-27 | 10.57
2018-11-28 | 10.71
2018-11-29 | 10.02
2018-11-30 | 9.79
2018-12-01 | 10.56
2018-12-02 | 11.13
2018-12-03 | 11.29
2018-12-04 | 11.10
2018-12-05 | 11.37
2018-12-06 | 10.97
2018-12-07 | 10.24
2018-12-08 | 10.25
2018-12-09 | 10.22
2018-12-10 | 10.20
2018-12-11 | 9.84
2018-12-12 | 9.88
2018-12-13 | 10.19
2018-12-14 | 10.15
2018-12-15 | 9.40
2018-12-16 | 9.40
2018-12-17 | 9.16
2018-12-18 | 8.94
2018-12-19 | 8.96
2018-12-20 | 9.19
2018-12-21 | 9.81
2018-12-22 | 9.68
2018-12-23 | 10.23
2018-12-24 | 10.28
2018-12-25 | 10.37
2018-12-26 | 10.47
2018-12-27 | 10.86
2018-12-28 | 11.08
2018-12-29 | 11.49
2018-12-30 | 11.19
2018-12-31 | 11.51
2019-01-01 | 11.44
2019-01-02 | 10.87
2019-01-03 | 11.22
2019-01-04 | 11.13
2019-01-05 | 11.60
2019-01-06 | 10.93
2019-01-07 | 10.81
2019-01-08 | 11.15
2019-01-09 | 10.36
2019-01-10 | 10.28
2019-01-11 | 10.80
2019-01-12 | 10.42
2019-01-13 | 10.62
2019-01-14 | 10.23
2019-01-15 | 9.86
2019-01-16 | 9.72
2019-01-17 | 8.87
2019-01-18 | 8.20
2019-01-19 | 7.89
2019-01-20 | 7.85
2019-01-21 | 7.84
2019-01-22 | 7.75
2019-01-23 | 7.86
2019-01-24 | 7.80
2019-01-25 | 7.39
2019-01-26 | 7.57
2019-01-27 | 8.02
2019-01-28 | 8.64
2019-01-29 | 8.82
2019-01-30 | 8.52
2019-01-31 | 9.40
2019-02-01 | 9.68
2019-02-02 | 9.89
2019-02-03 | 10.20
2019-02-04 | 10.66
2019-02-05 | 11.28
2019-02-06 | 11.88
2019-02-07 | 11.63
2019-02-08 | 11.94
2019-02-09 | 11.63
2019-02-10 | 11.66
2019-02-11 | 11.67
2019-02-12 | 11.90
2019-02-13 | 12.46
2019-02-14 | 11.84
2019-02-15 | 11.80
2019-02-16 | 11.36
2019-02-17 | 11.17
2019-02-18 | 10.78
2019-02-19 | 10.58
2019-02-20 | 10.24
2019-02-21 | 10.73
2019-02-22 | 10.63
2019-02-23 | 11.14
2019-02-24 | 10.65
2019-02-25 | 10.33
2019-02-26 | 10.36
2019-02-27 | 10.17
2019-02-28 | 10.66
2019-03-01 | 10.87
2019-03-02 | 11.19
2019-03-03 | 10.89
2019-03-04 | 10.64
2019-03-05 | 10.33
2019-03-06 | 10.22
2019-03-07 | 9.89
2019-03-08 | 10.18
2019-03-09 | 10.14
2019-03-10 | 10.54
2019-03-11 | 10.57
2019-03-12 | 11.03
2019-03-13 | 11.17
2019-03-14 | 10.99
2019-03-15 | 11.04
2019-03-16 | 10.69
2019-03-17 | 11.26
2019-03-18 | 11.91
2019-03-19 | 11.60
2019-03-20 | 12.03
2019-03-21 | 11.99
2019-03-22 | 11.57
2019-03-23 | 11.57
2019-03-24 | 11.08
2019-03-25 | 10.85
2019-03-26 | 10.82
2019-03-27 | 10.73
2019-03-28 | 10.41
2019-03-29 | 10.25
2019-03-30 | 10.03
2019-03-31 | 10.12
2019-04-01 | 10.10
2019-04-02 | 10.21
2019-04-03 | 9.76
2019-04-04 | 10.00
2019-04-05 | 9.63
2019-04-06 | 9.67
2019-04-07 | 9.87
2019-04-08 | 9.85
2019-04-09 | 9.65
2019-04-10 | 9.57
2019-04-11 | 9.89
2019-04-12 | 10.14
2019-04-13 | 10.28
2019-04-14 | 10.01
2019-04-15 | 9.98
2019-04-16 | 10.27
2019-04-17 | 10.27
2019-04-18 | 10.06
2019-04-19 | 10.66
2019-04-20 | 10.49
2019-04-21 | 10.57
2019-04-22 | 10.50
2019-04-23 | 10.55
2019-04-24 | 10.86
2019-04-25 | 11.07
2019-04-26 | 10.76
2019-04-27 | 10.83
2019-04-28 | 10.64
2019-04-29 | 10.17
2019-04-30 | 9.97
2019-05-01 | 10.10
2019-05-02 | 10.41
2019-05-03 | 9.90
2019-05-04 | 9.83
2019-05-05 | 9.44
2019-05-06 | 9.96
2019-05-07 | 9.78
2019-05-08 | 9.34
2019-05-09 | 9.29
2019-05-10 | 9.34
2019-05-11 | 9.49
2019-05-12 | 10.04
2019-05-13 | 10.00
2019-05-14 | 10.36
2019-05-15 | 9.86
2019-05-16 | 9.65
2019-05-17 | 9.33
2019-05-18 | 9.46
2019-05-19 | 9.76
2019-05-20 | 9.55
2019-05-21 | 9.43
2019-05-22 | 9.84
2019-05-23 | 9.97
2019-05-24 | 9.61
2019-05-25 | 9.46
2019-05-26 | 9.00
2019-05-27 | 8.92
2019-05-28 | 8.68
2019-05-29 | 9.54
2019-05-30 | 9.83
2019-05-31 | 10.43
2019-06-01 | 10.36
2019-06-02 | 10.21
2019-06-03 | 10.12
2019-06-04 | 10.55
2019-06-05 | 10.42
2019-06-06 | 10.30
2019-06-07 | 11.00
2019-06-08 | 11.02
2019-06-09 | 10.90
2019-06-10 | 10.75
2019-06-11 | 10.43
2019-06-12 | 9.70
2019-06-13 | 9.38
2019-06-14 | 9.78
2019-06-15 | 10.24
2019-06-16 | 10.15
2019-06-17 | 10.84
2019-06-18 | 10.12
2019-06-19 | 10.01
2019-06-20 | 9.68
2019-06-21 | 9.32
2019-06-22 | 9.03
2019-06-23 | 9.00
2019-06-24 | 9.32
2019-06-25 | 9.25
2019-06-26 | 9.42
2019-06-27 | 9.27
2019-06-28 | 8.71
2019-06-29 | 8.30
2019-06-30 | 7.94
2019-07-01 | 7.20
2019-07-02 | 7.17
2019-07-03 | 7.84
2019-07-04 | 8.47
2019-07-05 | 8.42
2019-07-06 | 8.68
2019-07-07 | 8.57
2019-07-08 | 9.14
2019-07-09 | 9.39
2019-07-10 | 9.32
2019-07-11 | 9.37
2019-07-12 | 9.46
2019-07-13 | 9.48
2019-07-14 | 10.06
2019-07-15 | 10.37
2019-07-16 | 10.39
2019-07-17 | 9.38
2019-07-18 | 9.05
2019-07-19 | 9.35
2019-07-20 | 9.36
2019-07-21 | 9.34
2019-07-22 | 8.88
2019-07-23 | 8.75
2019-07-24 | 9.08
2019-07-25 | 9.62
2019-07-26 | 9.76
2019-07-27 | 9.51
2019-07-28 | 9.55
2019-07-29 | 9.25
2019-07-30 | 9.75
2019-07-31 | 10.58
2019-08-01 | 10.58
2019-08-02 | 10.08
2019-08-03 | 10.00
2019-08-04 | 9.66
2019-08-05 | 9.75
2019-08-06 | 9.88
2019-08-07 | 9.98
2019-08-08 | 9.81
2019-08-09 | 9.67
2019-08-10 | 9.52
2019-08-11 | 9.69
2019-08-12 | 9.97
2019-08-13 | 10.33
2019-08-14 | 10.12
2019-08-15 | 10.10
2019-08-16 | 10.03
2019-08-17 | 9.88
2019-08-18 | 10.53
2019-08-19 | 10.73
2019-08-20 | 10.99
2019-08-21 | 10.79
2019-08-22 | 10.28
2019-08-23 | 10.51
2019-08-24 | 10.69
2019-08-25 | 10.57
2019-08-26 | 10.79
2019-08-27 | 10.22
2019-08-28 | 10.26
2019-08-29 | 10.10
2019-08-30 | 10.43
2019-08-31 | 10.76
2019-09-01 | 10.30
2019-09-02 | 9.86
2019-09-03 | 9.66
2019-09-04 | 9.83
2019-09-05 | 9.85
2019-09-06 | 9.55
2019-09-07 | 9.76
2019-09-08 | 8.95
2019-09-09 | 8.61
2019-09-10 | 8.25
2019-09-11 | 8.63
2019-09-12 | 9.08
2019-09-13 | 9.55
2019-09-14 | 9.82
2019-09-15 | 9.86
2019-09-16 | 10.59
2019-09-17 | 11.16
2019-09-18 | 11.47
2019-09-19 | 12.02
2019-09-20 | 12.37
2019-09-21 | 12.30
2019-09-22 | 12.92
2019-09-23 | 13.20
2019-09-24 | 13.66
2019-09-25 | 13.23
2019-09-26 | 12.54
2019-09-27 | 12.02
2019-09-28 | 11.61
2019-09-29 | 12.28
2019-09-30 | 11.71
2019-10-01 | 10.77
2019-10-02 | 10.01
2019-10-03 | 9.91
2019-10-04 | 10.02
2019-10-05 | 10.23
2019-10-06 | 10.06
2019-10-07 | 9.81
2019-10-08 | 9.54
2019-10-09 | 9.25
2019-10-10 | 9.54
2019-10-11 | 9.78
2019-10-12 | 9.98
2019-10-13 | 9.46
2019-10-14 | 9.60
2019-10-15 | 9.60
2019-10-16 | 9.92
2019-10-17 | 9.92
2019-10-18 | 9.30
2019-10-19 | 8.68
2019-10-20 | 8.98
2019-10-21 | 9.04
2019-10-22 | 9.32
2019-10-23 | 9.48
2019-10-24 | 9.92
2019-10-25 | 10.07
2019-10-26 | 9.88
2019-10-27 | 10.35
2019-10-28 | 10.11
2019-10-29 | 10.78
2019-10-30 | 10.42
2019-10-31 | 10.03
2019-11-01 | 10.65
2019-11-02 | 10.74
2019-11-03 | 10.80
2019-11-04 | 10.61
2019-11-05 | 10.45
2019-11-06 | 10.52
2019-11-07 | 10.26
2019-11-08 | 9.90
2019-11-09 | 9.90
2019-11-10 | 9.86
2019-11-11 | 10.10
2019-11-12 | 9.94
2019-11-13 | 10.07
2019-11-14 | 9.83
2019-11-15 | 9.28
2019-11-16 | 9.43
2019-11-17 | 9.70
2019-11-18 | 10.20
2019-11-19 | 9.97
2019-11-20 | 9.72
2019-11-21 | 9.94
2019-11-22 | 9.82
2019-11-23 | 9.97
2019-11-24 | 9.90
2019-11-25 | 9.97
2019-11-26 | 10.14
2019-11-27 | 10.52
2019-11-28 | 10.93
2019-11-29 | 10.79
2019-11-30 | 10.72
2019-12-01 | 10.53
2019-12-02 | 10.31
2019-12-03 | 10.77
2019-12-04 | 11.16
2019-12-05 | 10.10
2019-12-06 | 10.08
2019-12-07 | 9.85
2019-12-08 | 9.45
2019-12-09 | 9.35
2019-12-10 | 8.97
2019-12-11 | 8.69
2019-12-12 | 8.49
2019-12-13 | 9.35
2019-12-14 | 9.22
2019-12-15 | 8.49
2019-12-16 | 8.54
2019-12-17 | 8.49
2019-12-18 | 8.08
2019-12-19 | 8.88
2019-12-20 | 8.70
2019-12-21 | 9.52
2019-12-22 | 9.91
2019-12-23 | 10.02
2019-12-24 | 10.70
2019-12-25 | 10.40
2019-12-26 | 10.47
2019-12-27 | 10.19
2019-12-28 | 10.05
2019-12-29 | 10.40
2019-12-30 | 9.71
2019-12-31 | 9.51
2020-01-01 | 9.82
2020-01-02 | 9.46
2020-01-03 | 9.66
2020-01-04 | 9.13
2020-01-05 | 9.64
2020-01-06 | 9.65
2020-01-07 | 8.84
2020-01-08 | 9.69
2020-01-09 | 10.13
2020-01-10 | 10.07
2020-01-11 | 11.06
2020-01-12 | 11.16
2020-01-13 | 11.84
2020-01-14 | 11.89
2020-01-15 | 11.53
2020-01-16 | 11.16
2020-01-17 | 11.61
2020-01-18 | 11.28
2020-01-19 | 10.31
2020-01-20 | 9.79
2020-01-21 | 10.29
2020-01-22 | 10.02
2020-01-23 | 9.93
2020-01-24 | 9.79
2020-01-25 | 9.27
2020-01-26 | 9.15
2020-01-27 | 9.30
2020-01-28 | 9.02
2020-01-29 | 9.59
2020-01-30 | 10.34
2020-01-31 | 10.29
2020-02-01 | 10.81
2020-02-02 | 11.16
2020-02-03 | 11.32
2020-02-04 | 11.13
2020-02-05 | 10.95
2020-02-06 | 10.78
2020-02-07 | 10.63
2020-02-08 | 11.21
2020-02-09 | 11.19
2020-02-10 | 11.11
2020-02-11 | 11.79
2020-02-12 | 11.78
2020-02-13 | 11.43
2020-02-14 | 11.31
2020-02-15 | 11.24
2020-02-16 | 11.17
2020-02-17 | 11.49
2020-02-18 | 11.48
2020-02-19 | 12.14
2020-02-20 | 11.84
2020-02-21 | 11.54
2020-02-22 | 11.00
2020-02-23 | 11.13
2020-02-24 | 10.18
2020-02-25 | 10.23
2020-02-26 | 10.08
2020-02-27 | 10.78
2020-02-28 | 10.50
2020-02-29 | 10.85
2020-03-01 | 10.86
2020-03-02 | 10.45
2020-03-03 | 10.11
2020-03-04 | 9.03
2020-03-05 | 9.38
2020-03-06 | 9.72
2020-03-07 | 9.27
2020-03-08 | 9.28
2020-03-09 | 10.17
2020-03-10 | 9.78
2020-03-11 | 9.68
2020-03-12 | 8.90
2020-03-13 | 9.67
2020-03-14 | 8.82
2020-03-15 | 8.65
2020-03-16 | 9.14
2020-03-17 | 9.35
2020-03-18 | 10.36
2020-03-19 | 10.34
2020-03-20 | 10.01
2020-03-21 | 10.79
2020-03-22 | 10.58
2020-03-23 | 10.59
2020-03-24 | 10.80
2020-03-25 | 11.35
2020-03-26 | 11.08
2020-03-27 | 9.95
2020-03-28 | 10.28
2020-03-29 | 10.36
2020-03-30 | 10.56
2020-03-31 | 10.21
2020-04-01 | 9.34
2020-04-02 | 8.91
2020-04-03 | 9.40
2020-04-04 | 9.55
2020-04-05 | 9.69
2020-04-06 | 9.68
2020-04-07 | 9.36
2020-04-08 | 9.07
2020-04-09 | 9.18
2020-04-10 | 9.92
2020-04-11 | 9.85
2020-04-12 | 10.33
2020-04-13 | 9.78
2020-04-14 | 10.25
2020-04-15 | 10.52
2020-04-16 | 11.01
2020-04-17 | 11.23
2020-04-18 | 10.36
2020-04-19 | 10.94
2020-04-20 | 10.70
2020-04-21 | 10.29
2020-04-22 | 9.86
2020-04-23 | 10.33
2020-04-24 | 9.49
2020-04-25 | 9.74
2020-04-26 | 9.69
2020-04-27 | 9.21
2020-04-28 | 9.03
2020-04-29 | 8.87
2020-04-30 | 9.09
2020-05-01 | 8.67
2020-05-02 | 9.16
2020-05-03 | 8.56
2020-05-04 | 8.77
2020-05-05 | 9.87
2020-05-06 | 10.41
2020-05-07 | 10.25
2020-05-08 | 10.62
2020-05-09 | 10.63
2020-05-10 | 10.09
2020-05-11 | 10.38
2020-05-12 | 10.55
2020-05-13 | 11.04
2020-05-14 | 11.14
2020-05-15 | 10.83
2020-05-16 | 10.84
2020-05-17 | 10.93
2020-05-18 | 11.07
2020-05-19 | 10.49
2020-05-20 | 10.24
2020-05-21 | 10.13
2020-05-22 | 10.52
2020-05-23 | 10.53
2020-05-24 | 11.04
2020-05-25 | 11.56
2020-05-26 | 11.36
2020-05-27 | 10.87
2020-05-28 | 10.50
2020-05-29 | 10.88
2020-05-30 | 10.59
2020-05-31 | 10.62
2020-06-01 | 10.05
2020-06-02 | 10.02
2020-06-03 | 9.58
2020-06-04 | 10.07
2020-06-05 | 9.75
2020-06-06 | 9.75
2020-06-07 | 9.63
2020-06-08 | 9.56
2020-06-09 | 9.37
2020-06-10 | 10.12
2020-06-11 | 10.19
2020-06-12 | 10.64
2020-06-13 | 10.71
2020-06-14 | 10.83
2020-06-15 | 10.79
2020-06-16 | 10.98
2020-06-17 | 11.48
2020-06-18 | 10.87
2020-06-19 | 11.46
2020-06-20 | 10.91
2020-06-21 | 11.26
2020-06-22 | 11.34
2020-06-23 | 11.94
2020-06-24 | 11.18
2020-06-25 | 11.02
2020-06-26 | 10.94
2020-06-27 | 10.86
2020-06-28 | 10.63
2020-06-29 | 11.37
2020-06-30 | 11.10
2020-07-01 | 11.11
2020-07-02 | 11.21
2020-07-03 | 10.96
2020-07-04 | 11.18
2020-07-05 | 10.14
2020-07-06 | 9.95
2020-07-07 | 9.17
2020-07-08 | 9.48
2020-07-09 | 9.30
2020-07-10 | 9.29
2020-07-11 | 9.68
2020-07-12 | 9.82
2020-07-13 | 8.93
2020-07-14 | 9.16
2020-07-15 | 8.59
2020-07-16 | 8.97
2020-07-17 | 8.51
2020-07-18 | 8.62
2020-07-19 | 8.92
2020-07-20 | 9.57
2020-07-21 | 9.70
2020-07-22 | 9.47
2020-07-23 | 9.44
2020-07-24 | 9.57
2020-07-25 | 9.30
2020-07-26 | 9.36
2020-07-27 | 9.79
2020-07-28 | 9.74
2020-07-29 | 10.36
2020-07-30 | 10.10
2020-07-31 | 10.28
2020-08-01 | 10.66
2020-08-02 | 10.73
2020-08-03 | 10.63
2020-08-04 | 10.95
2020-08-05 | 10.99
2020-08-06 | 11.64
2020-08-07 | 10.84
2020-08-08 | 10.86
2020-08-09 | 10.95
2020-08-10 | 10.89
2020-08-11 | 11.11
2020-08-12 | 11.01
2020-08-13 | 11.54
2020-08-14 | 11.49
2020-08-15 | 11.36
2020-08-16 | 11.54
2020-08-17 | 11.01
2020-08-18 | 10.83
2020-08-19 | 11.12
2020-08-20 | 10.74
2020-08-21 | 11.57
2020-08-22 | 11.84
2020-08-23 | 11.89
2020-08-24 | 11.98
2020-08-25 | 11.58
2020-08-26 | 11.34
2020-08-27 | 10.92
2020-08-28 | 11.06
2020-08-29 | 11.06
2020-08-30 | 11.20
2020-08-31 | 11.29
2020-09-01 | 11.47
2020-09-02 | 11.50
2020-09-03 | 11.46
2020-09-04 | 10.53
2020-09-05 | 10.29
2020-09-06 | 10.73
2020-09-07 | 11.07
2020-09-08 | 11.38
2020-09-09 | 12.06
2020-09-10 | 12.20
2020-09-11 | 12.55
2020-09-12 | 12.53
2020-09-13 | 11.99
2020-09-14 | 12.08
2020-09-15 | 11.81
2020-09-16 | 11.57
2020-09-17 | 11.75
2020-09-18 | 12.51
2020-09-19 | 12.51
2020-09-20 | 11.65
2020-09-21 | 10.72
2020-09-22 | 10.07
2020-09-23 | 9.73
2020-09-24 | 9.31
2020-09-25 | 8.87
2020-09-26 | 8.43
2020-09-27 | 9.26
2020-09-28 | 8.84
2020-09-29 | 9.52
2020-09-30 | 9.79
2020-10-01 | 9.22
2020-10-02 | 9.01
2020-10-03 | 9.49
2020-10-04 | 9.92
2020-10-05 | 10.61
2020-10-06 | 10.67
2020-10-07 | 10.48
2020-10-08 | 11.09
2020-10-09 | 10.66
2020-10-10 | 10.68
2020-10-11 | 10.61
2020-10-12 | 10.59
2020-10-13 | 10.45
2020-10-14 | 10.48
2020-10-15 | 10.80
2020-10-16 | 10.92
2020-10-17 | 10.03
2020-10-18 | 9.70
2020-10-19 | 9.47
2020-10-20 | 9.75
2020-10-21 | 9.92
2020-10-22 | 9.67
2020-10-23 | 10.29
2020-10-24 | 10.06
2020-10-25 | 9.77
2020-10-26 | 10.04
2020-10-27 | 9.69
2020-10-28 | 9.07
2020-10-29 | 8.95
2020-10-30 | 8.85
2020-10-31 | 9.74
2020-11-01 | 10.46
2020-11-02 | 10.65
2020-11-03 | 11.23
2020-11-04 | 11.22
2020-11-05 | 11.28
2020-11-06 | 10.96
2020-11-07 | 11.96
2020-11-08 | 11.85
2020-11-09 | 12.01
2020-11-10 | 12.10
2020-11-11 | 12.75
2020-11-12 | 13.12
2020-11-13 | 12.88
2020-11-14 | 12.19
2020-11-15 | 11.73
2020-11-16 | 11.32
2020-11-17 | 11.16
2020-11-18 | 10.73
2020-11-19 | 10.36
2020-11-20 | 10.97
2020-11-21 | 10.67
2020-11-22 | 10.59
2020-11-23 | 10.55
2020-11-24 | 10.62
2020-11-25 | 10.54
2020-11-26 | 10.69
2020-11-27 | 10.67
2020-11-28 | 10.96
2020-11-29 | 10.76
2020-11-30 | 11.12
2020-12-01 | 10.37
2020-12-02 | 10.69
2020-12-03 | 10.58
2020-12-04 | 9.71
2020-12-05 | 9.23
2020-12-06 | 9.43
2020-12-07 | 9.36
2020-12-08 | 9.25
2020-12-09 | 8.90
2020-12-10 | 8.60
2020-12-11 | 8.34
2020-12-12 | 8.18
2020-12-13 | 8.63
2020-12-14 | 8.08
2020-12-15 | 8.75
2020-12-16 | 9.07
2020-12-17 | 9.33
2020-12-18 | 9.85
2020-12-19 | 9.54
2020-12-20 | 9.25
2020-12-21 | 9.15
2020-12-22 | 9.35
2020-12-23 | 9.38
2020-12-24 | 9.39
2020-12-25 | 9.95
2020-12-26 | 10.05
2020-12-27 | 9.13
2020-12-28 | 9.17
2020-12-29 | 8.93
2020-12-30 | 8.54
2020-12-31 | 8.50
2021-01-01 | 8.82
2021-01-02 | 9.65
2021-01-03 | 9.82
2021-01-04 | 9.83
2021-01-05 | 10.02
2021-01-06 | 10.18
2021-01-07 | 10.02
2021-01-08 | 9.92
2021-01-09 | 9.65
2021-01-10 | 10.18
2021-01-11 | 10.99
2021-01-12 | 11.31
2021-01-13 | 11.16
2021-01-14 | 11.24
2021-01-15 | 11.03
2021-01-16 | 11.21
2021-01-17 | 11.40
2021-01-18 | 11.51
2021-01-19 | 11.13
2021-01-20 | 11.07
2021-01-21 | 10.83
2021-01-22 | 11.24
2021-01-23 | 11.73
2021-01-24 | 11.36
2021-01-25 | 11.21
2021-01-26 | 10.89
2021-01-27 | 11.03
2021-01-28 | 11.06
2021-01-29 | 11.55
2021-01-30 | 10.96
2021-01-31 | 11.11
2021-02-01 | 10.78
2021-02-02 | 10.38
2021-02-03 | 9.80
2021-02-04 | 10.00
2021-02-05 | 9.76
2021-02-06 | 9.09
2021-02-07 | 9.66
2021-02-08 | 9.49
2021-02-09 | 9.66
2021-02-10 | 10.27
2021-02-11 | 10.01
2021-02-12 | 9.61
2021-02-13 | 9.83
2021-02-14 | 9.11
2021-02-15 | 9.13
2021-02-16 | 9.37
2021-02-17 | 10.03
2021-02-18 | 10.45
2021-02-19 | 10.36
2021-02-20 | 10.64
2021-02-21 | 10.49
2021-02-22 | 9.91
2021-02-23 | 10.13
2021-02-24 | 9.49
2021-02-25 | 9.86
2021-02-26 | 9.58
2021-02-27 | 10.08
2021-02-28 | 10.44
2021-03-01 | 10.44
2021-03-02 | 10.31
2021-03-03 | 10.69
2021-03-04 | 10.53
2021-03-05 | 10.62
2021-03-06 | 11.00
2021-03-07 | 10.62
2021-03-08 | 11.42
2021-03-09 | 11.51
2021-03-10 | 11.58
2021-03-11 | 11.66
2021-03-12 | 11.83
2021-03-13 | 11.31
2021-03-14 | 12.00
2021-03-15 | 12.42
2021-03-16 | 12.54
2021-03-17 | 12.35
2021-03-18 | 12.02
2021-03-19 | 12.04
2021-03-20 | 11.81
2021-03-21 | 12.39
2021-03-22 | 12.28
2021-03-23 | 11.81
2021-03-24 | 11.56
2021-03-25 | 11.50
2021-03-26 | 11.46
2021-03-27 | 11.04
2021-03-28 | 10.28
2021-03-29 | 9.99
2021-03-30 | 10.02
2021-03-31 | 9.53
2021-04-01 | 9.67
2021-04-02 | 9.68
2021-04-03 | 9.75
2021-04-04 | 9.24
2021-04-05 | 9.10
2021-04-06 | 8.83
2021-04-07 | 9.05
2021-04-08 | 8.34
2021-04-09 | 8.64
2021-04-10 | 8.92
2021-04-11 | 9.16
2021-04-12 | 8.97
2021-04-13 | 9.36
2021-04-14 | 9.79
2021-04-15 | 9.85
2021-04-16 | 10.10
2021-04-17 | 9.78
2021-04-18 | 10.48
2021-04-19 | 9.88
2021-04-20 | 10.06
2021-04-21 | 10.11
2021-04-22 | 10.61
2021-04-23 | 10.32
2021-04-24 | 10.82
2021-04-25 | 10.65
2021-04-26 | 11.03
2021-04-27 | 10.56
2021-04-28 | 10.22
2021-04-29 | 10.21
2021-04-30 | 9.87
2021-05-01 | 10.63
2021-05-02 | 10.15
2021-05-03 | 10.91
2021-05-04 | 10.99
2021-05-05 | 10.85
2021-05-06 | 11.23
2021-05-07 | 11.29
2021-05-08 | 10.99
2021-05-09 | 11.05
2021-05-10 | 10.98
2021-05-11 | 10.76
2021-05-12 | 10.95
2021-05-13 | 10.60
2021-05-14 | 10.63
2021-05-15 | 10.54
2021-05-16 | 10.24
2021-05-17 | 10.02
2021-05-18 | 10.64
2021-05-19 | 10.92
2021-05-20 | 11.04
2021-05-21 | 10.51
2021-05-22 | 9.78
2021-05-23 | 9.74
2021-05-24 | 9.73
2021-05-25 | 10.35
2021-05-26 | 10.47
2021-05-27 | 10.84
2021-05-28 | 10.71
2021-05-29 | 10.32
2021-05-30 | 10.77
2021-05-31 | 10.80
2021-06-01 | 10.57
2021-06-02 | 10.12
2021-06-03 | 9.62
2021-06-04 | 9.66
2021-06-05 | 10.09
2021-06-06 | 10.39
2021-06-07 | 10.42
2021-06-08 | 10.59
2021-06-09 | 10.69
2021-06-10 | 10.85
2021-06-11 | 10.23
2021-06-12 | 10.22
2021-06-13 | 9.60
2021-06-14 | 9.88
2021-06-15 | 9.07
2021-06-16 | 9.51
2021-06-17 | 9.48
2021-06-18 | 9.61
2021-06-19 | 9.35
2021-06-20 | 8.64
2021-06-21 | 8.70
2021-06-22 | 8.92
2021-06-23 | 8.95
2021-06-24 | 8.54
2021-06-25 | 8.87
2021-06-26 | 9.07
2021-06-27 | 9.62
2021-06-28 | 9.00
2021-06-29 | 9.53
2021-06-30 | 9.62
2021-07-01 | 9.34
2021-07-02 | 9.23
2021-07-03 | 9.40
2021-07-04 | 9.90
2021-07-05 | 9.69
2021-07-06 | 9.22
2021-07-07 | 8.57
2021-07-08 | 8.90
2021-07-09 | 8.92
2021-07-10 | 9.22
2021-07-11 | 9.63
2021-07-12 | 10.12
2021-07-13 | 9.76
2021-07-14 | 9.41
2021-07-15 | 9.78
2021-07-16 | 10.01
2021-07-17 | 10.12
2021-07-18 | 9.95
2021-07-19 | 10.58
2021-07-20 | 10.48
2021-07-21 | 10.58
2021-07-22 | 10.38
2021-07-23 | 10.45
2021-07-24 | 10.32
2021-07-25 | 9.76
2021-07-26 | 9.71
2021-07-27 | 9.60
2021-07-28 | 9.91
2021-07-29 | 9.97
2021-07-30 | 10.42
2021-07-31 | 10.05
2021-08-01 | 9.70
2021-08-02 | 9.15
2021-08-03 | 8.68
2021-08-04 | 8.71
2021-08-05 | 8.70
2021-08-06 | 8.89
2021-08-07 | 8.57
2021-08-08 | 9.20
2021-08-09 | 9.24
2021-08-10 | 9.88
2021-08-11 | 9.81
2021-08-12 | 9.79
2021-08-13 | 9.49
2021-08-14 | 9.96
2021-08-15 | 10.23
2021-08-16 | 10.21
2021-08-17 | 10.90
2021-08-18 | 11.36
2021-08-19 | 11.59
2021-08-20 | 11.11
2021-08-21 | 11.22
2021-08-22 | 10.41
2021-08-23 | 10.20
2021-08-24 | 9.49
2021-08-25 | 9.35
2021-08-26 | 9.36
2021-08-27 | 8.93
2021-08-28 | 9.23
2021-08-29 | 9.36
2021-08-30 | 9.15
2021-08-31 | 9.17
2021-09-01 | 8.90
2021-09-02 | 9.11
2021-09-03 | 9.29
2021-09-04 | 8.90
2021-09-05 | 9.27
2021-09-06 | 9.11
2021-09-07 | 9.89
2021-09-08 | 9.91
2021-09-09 | 10.26
2021-09-10 | 10.26
2021-09-11 | 10.05
2021-09-12 | 9.67
2021-09-13 | 10.21
2021-09-14 | 9.86
2021-09-15 | 9.80
2021-09-16 | 9.93
2021-09-17 | 9.78
2021-09-18 | 9.89
2021-09-19 | 9.59
2021-09-20 | 9.87
2021-09-21 | 9.11
2021-09-22 | 9.02
2021-09-23 | 8.59
2021-09-24 | 8.68
2021-09-25 | 8.95
2021-09-26 | 9.14
2021-09-27 | 8.80
2021-09-28 | 8.57
2021-09-29 | 8.32
2021-09-30 | 8.05
2021-10-01 | 8.33
2021-10-02 | 8.66
2021-10-03 | 8.87
2021-10-04 | 9.23
2021-10-05 | 9.51
2021-10-06 | 9.74
2021-10-07 | 10.08
2021-10-08 | 10.77
2021-10-09 | 9.84
2021-10-10 | 9.59
2021-10-11 | 9.35
2021-10-12 | 9.62
2021-10-13 | 9.69
2021-10-14 | 9.52
2021-10-15 | 9.34
2021-10-16 | 9.10
2021-10-17 | 9.10
2021-10-18 | 8.23
2021-10-19 | 8.06
2021-10-20 | 7.59
2021-10-21 | 7.51
2021-10-22 | 7.45
2021-10-23 | 7.97
2021-10-24 | 8.09
2021-10-25 | 8.89
2021-10-26 | 8.63
2021-10-27 | 9.07
2021-10-28 | 9.46
2021-10-29 | 9.73
2021-10-30 | 9.82
2021-10-31 | 9.96
2021-11-01 | 10.95
2021-11-02 | 11.16
2021-11-03 | 11.45
2021-11-04 | 11.26
2021-11-05 | 10.89
2021-11-06 | 11.01
2021-11-07 | 11.81
2021-11-08 | 11.26
2021-11-09 | 11.74
2021-11-10 | 11.40
2021-11-11 | 10.66
2021-11-12 | 10.95
2021-11-13 | 10.64
2021-11-14 | 10.09
2021-11-15 | 9.58
2021-11-16 | 9.34
2021-11-17 | 9.19
2021-11-18 | 9.01
2021-11-19 | 8.94
2021-11-20 | 9.16
2021-11-21 | 8.96
2021-11-22 | 9.11
2021-11-23 | 8.47
2021-11-24 | 8.22
2021-11-25 | 8.49
2021-11-26 | 7.91
2021-11-27 | 8.30
2021-11-28 | 8.99
2021-11-29 | 9.25
2021-11-30 | 10.21
2021-12-01 | 10.13
2021-12-02 | 10.17
2021-12-03 | 10.37
2021-12-04 | 9.87
2021-12-05 | 10.14
2021-12-06 | 10.10
2021-12-07 | 10.27
2021-12-08 | 11.00
2021-12-09 | 10.85
2021-12-10 | 11.52
2021-12-11 | 11.91
2021-12-12 | 11.31
2021-12-13 | 10.90
2021-12-14 | 10.33
2021-12-15 | 10.49
2021-12-16 | 10.86
2021-12-17 | 10.57
2021-12-18 | 10.77
2021-12-19 | 10.59
2021-12-20 | 10.57
2021-12-21 | 10.71
2021-12-22 | 10.82
2021-12-23 | 11.36
2021-12-24 | 11.07
2021-12-25 | 10.75
2021-12-26 | 11.00
2021-12-27 | 11.11
2021-12-28 | 11.19
2021-12-29 | 10.62
2021-12-30 | 10.67
2021-12-31 | 11.12
2022-01-01 | 11.35
2022-01-02 | 10.84
2022-01-03 | 10.94
2022-01-04 | 11.01
2022-01-05 | 10.81
2022-01-06 | 10.64
2022-01-07 | 10.65
2022-01-08 | 10.43
2022-01-09 | 10.56
2022-01-10 | 10.26
2022-01-11 | 10.79
2022-01-12 | 11.33
2022-01-13 | 11.15
2022-01-14 | 10.43
2022-01-15 | 10.37
2022-01-16 | 10.74
2022-01-17 | 10.95
2022-01-18 | 10.98
2022-01-19 | 10.47
2022-01-20 | 10.18
2022-01-21 | 9.82
2022-01-22 | 9.75
2022-01-23 | 9.69
2022-01-24 | 10.09
2022-01-25 | 9.33
2022-01-26 | 9.21
2022-01-27 | 8.86
2022-01-28 | 8.91
2022-01-29 | 8.26
2022-01-30 | 7.73
2022-01-31 | 7.31
2022-02-01 | 7.70
2022-02-02 | 7.87
2022-02-03 | 8.24
2022-02-04 | 9.02
2022-02-05 | 9.39
2022-02-06 | 9.63
2022-02-07 | 9.91
2022-02-08 | 9.96
2022-02-09 | 10.50
2022-02-10 | 10.36
2022-02-11 | 10.43
2022-02-12 | 11.29
2022-02-13 | 11.44
2022-02-14 | 11.98
2022-02-15 | 12.05
2022-02-16 | 11.72
2022-02-17 | 11.61
2022-02-18 | 11.12
2022-02-19 | 10.70
2022-02-20 | 10.51
2022-02-21 | 10.29
2022-02-22 | 10.61
2022-02-23 | 10.13
2022-02-24 | 10.09
2022-02-25 | 10.79
2022-02-26 | 10.32
2022-02-27 | 10.69
2022-02-28 | 9.93
2022-03-01 | 9.84
2022-03-02 | 10.36
2022-03-03 | 10.75
2022-03-04 | 10.59
2022-03-05 | 10.61
2022-03-06 | 11.01
2022-03-07 | 10.61
2022-03-08 | 10.20
2022-03-09 | 10.76
2022-03-10 | 11.16
2022-03-11 | 10.44
2022-03-12 | 10.33
2022-03-13 | 10.44
2022-03-14 | 11.13
2022-03-15 | 10.85
2022-03-16 | 10.57
2022-03-17 | 10.29
2022-03-18 | 10.56
2022-03-19 | 10.21
2022-03-20 | 9.96
2022-03-21 | 9.85
2022-03-22 | 10.23
2022-03-23 | 9.36
2022-03-24 | 9.27
2022-03-25 | 9.52
2022-03-26 | 9.22
2022-03-27 | 9.00
2022-03-28 | 8.63
2022-03-29 | 8.24
2022-03-30 | 8.48
2022-03-31 | 8.33
2022-04-01 | 8.83
2022-04-02 | 9.43
2022-04-03 | 9.47
2022-04-04 | 9.63
2022-04-05 | 9.15
2022-04-06 | 9.52
2022-04-07 | 9.61
2022-04-08 | 9.14
2022-04-09 | 9.80
2022-04-10 | 9.67
2022-04-11 | 9.28
2022-04-12 | 9.90
2022-04-13 | 10.39
2022-04-14 | 10.36
2022-04-15 | 9.95
2022-04-16 | 10.25
2022-04-17 | 10.03
2022-04-18 | 10.90
2022-04-19 | 11.19
2022-04-20 | 11.25
2022-04-21 | 11.47
2022-04-22 | 12.06
2022-04-23 | 12.31
2022-04-24 | 12.99
2022-04-25 | 13.28
2022-04-26 | 12.85
2022-04-27 | 12.12
2022-04-28 | 12.06
2022-04-29 | 11.79
2022-04-30 | 11.29
2022-05-01 | 11.38
2022-05-02 | 10.52
2022-05-03 | 10.79
2022-05-04 | 10.88
2022-05-05 | 10.66
2022-05-06 | 11.08
2022-05-07 | 10.32
2022-05-08 | 9.76
2022-05-09 | 9.94
2022-05-10 | 9.73
2022-05-11 | 9.89
2022-05-12 | 10.27
2022-05-13 | 10.34
2022-05-14 | 10.74
2022-05-15 | 10.76
2022-05-16 | 10.56
2022-05-17 | 10.45
2022-05-18 | 10.24
2022-05-19 | 10.78
2022-05-20 | 10.55
2022-05-21 | 10.85
2022-05-22 | 10.71
2022-05-23 | 10.77
2022-05-24 | 11.49
2022-05-25 | 11.66
2022-05-26 | 11.46
2022-05-27 | 12.08
2022-05-28 | 11.82
2022-05-29 | 12.13
2022-05-30 | 12.80
2022-05-31 | 13.24
2022-06-01 | 13.25
2022-06-02 | 12.24
2022-06-03 | 12.26
2022-06-04 | 12.32
2022-06-05 | 12.48
2022-06-06 | 12.71
2022-06-07 | 11.84
2022-06-08 | 11.68
2022-06-09 | 11.52
2022-06-10 | 10.90
2022-06-11 | 10.99
2022-06-12 | 10.13
2022-06-13 | 9.55
2022-06-14 | 9.31
2022-06-15 | 9.73
2022-06-16 | 10.46
2022-06-17 | 10.54
2022-06-18 | 10.76
2022-06-19 | 11.03
2022-06-20 | 10.91
2022-06-21 | 11.34
2022-06-22 | 11.60
2022-06-23 | 11.84
2022-06-24 | 11.88
2022-06-25 | 11.30
2022-06-26 | 11.65
2022-06-27 | 11.54
2022-06-28 | 11.12
2022-06-29 | 10.77
2022-06-30 | 10.40
2022-07-01 | 9.62
2022-07-02 | 9.14
2022-07-03 | 9.14
2022-07-04 | 9.10
2022-07-05 | 9.89
2022-07-06 | 9.53
2022-07-07 | 9.45
2022-07-08 | 9.43
2022-07-09 | 9.71
2022-07-10 | 10.14
2022-07-11 | 11.09
2022-07-12 | 11.21
2022-07-13 | 11.30
2022-07-14 | 11.74
2022-07-15 | 11.81
2022-07-16 | 11.89
2022-07-17 | 10.97
2022-07-18 | 10.91
2022-07-19 | 10.51
2022-07-20 | 10.65
2022-07-21 | 10.15
2022-07-22 | 10.30
2022-07-23 | 10.47
2022-07-24 | 9.60
2022-07-25 | 9.25
2022-07-26 | 9.34
2022-07-27 | 9.27
2022-07-28 | 8.87
2022-07-29 | 8.71
2022-07-30 | 9.50
2022-07-31 | 10.51
2022-08-01 | 10.61
2022-08-02 | 10.25
2022-08-03 | 10.50
2022-08-04 | 10.71
2022-08-05 | 10.59
2022-08-06 | 11.03
2022-08-07 | 11.73
2022-08-08 | 11.74
2022-08-09 | 11.56
2022-08-10 | 12.19
2022-08-11 | 12.87
2022-08-12 | 12.75
2022-08-13 | 12.40
2022-08-14 | 11.78
2022-08-15 | 11.56
2022-08-16 | 11.64
2022-08-17 | 11.97
2022-08-18 | 12.13
2022-08-19 | 12.46
2022-08-20 | 11.77
2022-08-21 | 11.67
2022-08-22 | 11.81
2022-08-23 | 11.58
2022-08-24 | 11.24
2022-08-25 | 10.74
2022-08-26 | 11.80
2022-08-27 | 11.88
2022-08-28 | 11.81
2022-08-29 | 11.79
2022-08-30 | 11.88
2022-08-31 | 10.96
2022-09-01 | 10.93
2022-09-02 | 10.28
2022-09-03 | 10.83
2022-09-04 | 10.70
2022-09-05 | 10.94
2022-09-06 | 10.96
2022-09-07 | 10.56
2022-09-08 | 10.61
2022-09-09 | 10.20
2022-09-10 | 10.10
2022-09-11 | 10.29
2022-09-12 | 10.13
2022-09-13 | 10.22
2022-09-14 | 10.69
2022-09-15 | 11.08
2022-09-16 | 11.31
2022-09-17 | 11.01
2022-09-18 | 11.13
2022-09-19 | 10.57
2022-09-20 | 10.68
2022-09-21 | 10.60
2022-09-22 | 10.53
2022-09-23 | 10.68
2022-09-24 | 10.40
2022-09-25 | 9.99
2022-09-26 | 10.35
2022-09-27 | 10.21
2022-09-28 | 10.20
2022-09-29 | 9.80
2022-09-30 | 10.17
2022-10-01 | 10.29
2022-10-02 | 10.52
2022-10-03 | 9.91
2022-10-04 | 9.81
2022-10-05 | 10.11
2022-10-06 | 9.91
2022-10-07 | 10.21
2022-10-08 | 10.87
2022-10-09 | 11.06
2022-10-10 | 10.74
2022-10-11 | 10.78
2022-10-12 | 10.93
2022-10-13 | 11.22
2022-10-14 | 10.91
2022-10-15 | 10.96
2022-10-16 | 10.35
2022-10-17 | 11.27
2022-10-18 | 11.91
2022-10-19 | 11.70
2022-10-20 | 11.93
2022-10-21 | 11.48
2022-10-22 | 10.95
2022-10-23 | 11.12
2022-10-24 | 11.06
2022-10-25 | 10.74
2022-10-26 | 10.11
2022-10-27 | 10.02
2022-10-28 | 9.95
2022-10-29 | 9.97
2022-10-30 | 10.14
2022-10-31 | 10.28
2022-11-01 | 10.34
2022-11-02 | 10.83
2022-11-03 | 10.46
2022-11-04 | 10.18
2022-11-05 | 10.37
2022-11-06 | 10.38
2022-11-07 | 10.48
2022-11-08 | 11.10
2022-11-09 | 11.57
2022-11-10 | 11.46
2022-11-11 | 11.46
2022-11-12 | 11.65
2022-11-13 | 12.07
2022-11-14 | 11.51
2022-11-15 | 11.08
2022-11-16 | 10.62
2022-11-17 | 10.93
2022-11-18 | 11.15
2022-11-19 | 10.79
2022-11-20 | 10.73
2022-11-21 | 10.78
2022-11-22 | 9.92
2022-11-23 | 9.54
2022-11-24 | 9.64
2022-11-25 | 9.68
2022-11-26 | 9.56
2022-11-27 | 9.25
2022-11-28 | 9.01
2022-11-29 | 8.66
2022-11-30 | 8.81
2022-12-01 | 8.93
2022-12-02 | 9.41
2022-12-03 | 9.68
2022-12-04 | 10.09
2022-12-05 | 10.23
2022-12-06 | 10.63
2022-12-07 | 11.14
2022-12-08 | 10.90
2022-12-09 | 11.37
2022-12-10 | 11.01
2022-12-11 | 10.43
2022-12-12 | 10.95
2022-12-13 | 11.22
2022-12-14 | 11.38
2022-12-15 | 11.15
2022-12-16 | 10.75
2022-12-17 | 10.77
2022-12-18 | 10.50
2022-12-19 | 10.45
2022-12-20 | 11.02
2022-12-21 | 10.96
2022-12-22 | 10.85
2022-12-23 | 10.39
2022-12-24 | 10.53
2022-12-25 | 11.13
2022-12-26 | 10.98
2022-12-27 | 11.15
2022-12-28 | 11.28
2022-12-29 | 11.35
2022-12-30 | 11.04
2022-12-31 | 10.90
2023-01-01 | 10.33
2023-01-02 | 10.35
2023-01-03 | 9.68
2023-01-04 | 9.46
2023-01-05 | 9.79
2023-01-06 | 9.30
2023-01-07 | 9.38
2023-01-08 | 9.59
2023-01-09 | 9.76
2023-01-10 | 9.43
2023-01-11 | 8.88
2023-01-12 | 9.00
2023-01-13 | 9.49
2023-01-14 | 9.29
2023-01-15 | 9.59
2023-01-16 | 10.04
2023-01-17 | 10.14
2023-01-18 | 10.04
2023-01-19 | 10.09
2023-01-20 | 10.99
2023-01-21 | 10.56
2023-01-22 | 10.56
2023-01-23 | 9.73
2023-01-24 | 9.90
2023-01-25 | 10.53
2023-01-26 | 10.22
2023-01-27 | 9.87
2023-01-28 | 9.73
2023-01-29 | 9.87
2023-01-30 | 9.17
2023-01-31 | 9.37
2023-02-01 | 9.80
2023-02-02 | 10.04
2023-02-03 | 9.15
2023-02-04 | 9.83
2023-02-05 | 9.40
2023-02-06 | 9.88
2023-02-07 | 9.88
2023-02-08 | 9.25
2023-02-09 | 8.87
2023-02-10 | 9.02
2023-02-11 | 9.11
2023-02-12 | 8.75
2023-02-13 | 8.84
2023-02-14 | 8.78
2023-02-15 | 8.74
2023-02-16 | 7.90
2023-02-17 | 8.14
2023-02-18 | 8.08
2023-02-19 | 8.09
2023-02-20 | 8.88
2023-02-21 | 8.47
2023-02-22 | 9.28
2023-02-23 | 9.83
2023-02-24 | 9.97
2023-02-25 | 10.32
2023-02-26 | 10.85
2023-02-27 | 11.09
2023-02-28 | 11.32
2023-03-01 | 11.03
2023-03-02 | 10.99
2023-03-03 | 10.90
2023-03-04 | 10.84
2023-03-05 | 10.73
2023-03-06 | 10.35
2023-03-07 | 10.72
2023-03-08 | 10.23
2023-03-09 | 10.12
2023-03-10 | 9.91
2023-03-11 | 9.88
2023-03-12 | 9.59
2023-03-13 | 9.29
2023-03-14 | 9.18
2023-03-15 | 9.07
2023-03-16 | 9.49
2023-03-17 | 9.34
2023-03-18 | 8.96
2023-03-19 | 9.22
2023-03-20 | 9.10
2023-03-21 | 9.32
2023-03-22 | 9.55
2023-03-23 | 9.88
2023-03-24 | 10.06
2023-03-25 | 9.81
2023-03-26 | 10.13
2023-03-27 | 10.82
2023-03-28 | 10.51
2023-03-29 | 10.56
2023-03-30 | 10.51
2023-03-31 | 10.85
2023-04-01 | 11.44
2023-04-02 | 11.42
2023-04-03 | 11.19
2023-04-04 | 10.69
2023-04-05 | 10.36
2023-04-06 | 9.62
2023-04-07 | 9.85
2023-04-08 | 9.53
2023-04-09 | 10.07
2023-04-10 | 9.93
2023-04-11 | 10.04
2023-04-12 | 10.47
2023-04-13 | 10.46
2023-04-14 | 10.62
2023-04-15 | 10.17
2023-04-16 | 9.81
2023-04-17 | 10.05
2023-04-18 | 10.18
2023-04-19 | 10.38
2023-04-20 | 11.36
2023-04-21 | 11.06
2023-04-22 | 11.71
2023-04-23 | 11.56
2023-04-24 | 10.58
2023-04-25 | 10.58
2023-04-26 | 10.26
2023-04-27 | 10.41
2023-04-28 | 10.04
2023-04-29 | 9.58
2023-04-30 | 10.00
2023-05-01 | 9.85
2023-05-02 | 9.97
2023-05-03 | 9.55
2023-05-04 | 9.35
2023-05-05 | 9.49
2023-05-06 | 9.26
2023-05-07 | 8.92
2023-05-08 | 9.68
2023-05-09 | 9.62
2023-05-10 | 9.25
2023-05-11 | 8.88
2023-05-12 | 9.34
2023-05-13 | 9.76
2023-05-14 | 9.96
2023-05-15 | 10.08
2023-05-16 | 10.23
2023-05-17 | 10.65
2023-05-18 | 10.19
2023-05-19 | 10.28
2023-05-20 | 10.66
2023-05-21 | 10.86
2023-05-22 | 10.99
2023-05-23 | 11.07
2023-05-24 | 11.07
2023-05-25 | 10.94
2023-05-26 | 10.54
2023-05-27 | 10.38
2023-05-28 | 10.02
2023-05-29 | 9.95
2023-05-30 | 9.92
2023-05-31 | 9.28
2023-06-01 | 9.39
2023-06-02 | 9.02
2023-06-03 | 8.82
2023-06-04 | 9.02
2023-06-05 | 8.72
2023-06-06 | 8.29
2023-06-07 | 8.22
2023-06-08 | 8.67
2023-06-09 | 9.11
2023-06-10 | 9.39
2023-06-11 | 9.12
2023-06-12 | 9.00
2023-06-13 | 9.39
2023-06-14 | 9.60
2023-06-15 | 9.88
2023-06-16 | 9.71
2023-06-17 | 9.86
2023-06-18 | 9.66
2023-06-19 | 9.58
2023-06-20 | 10.53
2023-06-21 | 11.17
2023-06-22 | 10.85
2023-06-23 | 10.53
2023-06-24 | 10.64
2023-06-25 | 11.19
2023-06-26 | 11.04
2023-06-27 | 10.61
2023-06-28 | 10.57
2023-06-29 | 10.12
2023-06-30 | 10.40
2023-07-01 | 9.75
2023-07-02 | 10.08
2023-07-03 | 10.25
2023-07-04 | 9.98
2023-07-05 | 9.65
2023-07-06 | 9.86
2023-07-07 | 9.79
2023-07-08 | 10.02
2023-07-09 | 9.97
2023-07-10 | 10.36
2023-07-11 | 10.36
2023-07-12 | 10.51
2023-07-13 | 10.63
2023-07-14 | 10.17
2023-07-15 | 10.76
2023-07-16 | 9.94
2023-07-17 | 10.04
2023-07-18 | 10.11
2023-07-19 | 10.55
2023-07-20 | 10.56
2023-07-21 | 10.79
2023-07-22 | 10.07
2023-07-23 | 10.12
2023-07-24 | 10.16
2023-07-25 | 10.20
2023-07-26 | 10.44
2023-07-27 | 11.01
2023-07-28 | 11.08
2023-07-29 | 10.97
2023-07-30 | 11.17
2023-07-31 | 11.44
2023-08-01 | 11.46
2023-08-02 | 10.71
2023-08-03 | 10.65
2023-08-04 | 11.08
2023-08-05 | 11.15
2023-08-06 | 11.36
2023-08-07 | 11.20
2023-08-08 | 11.12
2023-08-09 | 11.36
2023-08-10 | 11.08
2023-08-11 | 11.23
2023-08-12 | 10.91
2023-08-13 | 10.96
2023-08-14 | 11.04
2023-08-15 | 10.66
2023-08-16 | 10.60
2023-08-17 | 11.19
2023-08-18 | 10.81
2023-08-19 | 11.41
2023-08-20 | 10.63
2023-08-21 | 10.38
2023-08-22 | 10.71
2023-08-23 | 10.11
2023-08-24 | 10.42
2023-08-25 | 10.49
2023-08-26 | 10.46
2023-08-27 | 11.00
2023-08-28 | 10.17
2023-08-29 | 10.15
2023-08-30 | 10.43
2023-08-31 | 9.97
2023-09-01 | 10.00
2023-09-02 | 9.71
2023-09-03 | 10.46
2023-09-04 | 10.70
2023-09-05 | 10.46
2023-09-06 | 10.45
2023-09-07 | 10.26
2023-09-08 | 10.20
2023-09-09 | 10.52
2023-09-10 | 10.00
2023-09-11 | 10.15
2023-09-12 | 10.51
2023-09-13 | 10.84
2023-09-14 | 11.50
2023-09-15 | 11.07
2023-09-16 | 10.96
2023-09-17 | 10.90
2023-09-18 | 11.26
2023-09-19 | 11.05
2023-09-20 | 10.93
2023-09-21 | 10.57
2023-09-22 | 10.57
2023-09-23 | 10.70
2023-09-24 | 10.17
2023-09-25 | 10.64
2023-09-26 | 10.30
2023-09-27 | 10.04
2023-09-28 | 9.30
2023-09-29 | 9.63
2023-09-30 | 10.25
2023-10-01 | 9.78
2023-10-02 | 9.51
2023-10-03 | 9.51
2023-10-04 | 9.78
2023-10-05 | 10.02
2023-10-06 | 10.47
2023-10-07 | 10.21
2023-10-08 | 11.00
2023-10-09 | 10.81
2023-10-10 | 10.55
2023-10-11 | 10.29
2023-10-12 | 10.61
2023-10-13 | 10.88
2023-10-14 | 10.20
2023-10-15 | 10.06
2023-10-16 | 9.76
2023-10-17 | 9.87
2023-10-18 | 9.87
2023-10-19 | 9.89
2023-10-20 | 9.53
2023-10-21 | 9.97
2023-10-22 | 9.52
2023-10-23 | 9.76
2023-10-24 | 10.35
2023-10-25 | 10.45
2023-10-26 | 10.85
2023-10-27 | 10.66
2023-10-28 | 10.57
2023-10-29 | 10.88
2023-10-30 | 11.24
2023-10-31 | 11.04
2023-11-01 | 10.87
2023-11-02 | 10.87
2023-11-03 | 11.47
2023-11-04 | 11.15
2023-11-05 | 11.49
2023-11-06 | 11.15
2023-11-07 | 10.44
2023-11-08 | 10.48
2023-11-09 | 9.52
2023-11-10 | 9.97
2023-11-11 | 9.92
2023-11-12 | 10.52
2023-11-13 | 10.23
2023-11-14 | 10.46
2023-11-15 | 10.64
2023-11-16 | 10.79
2023-11-17 | 10.60
2023-11-18 | 10.77
2023-11-19 | 10.69
2023-11-20 | 10.95
2023-11-21 | 10.92
2023-11-22 | 11.78
2023-11-23 | 12.23
2023-11-24 | 11.64
2023-11-25 | 12.06
2023-11-26 | 11.51
2023-11-27 | 11.75
2023-11-28 | 11.50
2023-11-29 | 11.20
2023-11-30 | 11.28
2023-12-01 | 10.72
2023-12-02 | 10.41
2023-12-03 | 10.37
2023-12-04 | 10.05
2023-12-05 | 9.98
2023-12-06 | 9.07
2023-12-07 | 9.21
2023-12-08 | 9.09
2023-12-09 | 8.98
2023-12-10 | 9.40
2023-12-11 | 9.29
2023-12-12 | 9.99
2023-12-13 | 9.81
2023-12-14 | 9.52
2023-12-15 | 10.12
2023-12-16 | 10.52
2023-12-17 | 10.49
2023-12-18 | 10.76
2023-12-19 | 11.00
2023-12-20 | 11.22
2023-12-21 | 10.88
2023-12-22 | 10.98
2023-12-23 | 10.91
2023-12-24 | 10.92
2023-12-25 | 10.50
2023-12-26 | 10.23
2023-12-27 | 11.34
2023-12-28 | 11.61
2023-12-29 | 11.21
2023-12-30 | 10.83
2023-12-31 | 10.42
